877.0000 
894.7962 
908.4915 
916.6969 
919.8217 
924.1094 
928.8210 
935.6419 
949.6115 
965.4843 
981.2119 
994.2846 
998.1430 
995.3133 
988.0087 
979.7566 
977.6531 
981.8600 
991.3085 
1000.9259 
1008.6405 
1012.2932 
1011.5434 
1006.0036 
1000.9305 
1000.4836 
1005.6882 
1015.4737 
1027.2957 
1036.7684 
1040.5789 
1038.8448 
1032.8065 
1027.6032 
1026.4396 
1031.9706 
1038.2027 
1046.6635 
1053.7211 
1057.1072 
1060.0389 
1060.5158 
1059.1855 
1057.8851 
1059.3905 
1062.8970 
1068.2386 
1076.2714 
1084.4990 
1089.3201 
1089.8639 
1089.2385 
1087.5277 
1087.2907 
1089.1756 
1098.5008 
1111.1443 
1123.7540 
1134.0489 
1138.9756 
1139.2393 
1136.3340 
1133.8443 
1136.7125 
1144.9023 
1152.8473 
1163.3384 
1172.0932 
1176.9174 
1176.7079 
1173.1122 
1169.5315 
1169.8064 
1176.1228 
1185.8803 
1195.8603 
1201.8032 
1205.6437 
1206.3776 
1203.3845 
1202.4687 
1202.0521 
1201.8839 
1202.4644 
1202.6104 
1200.2840 
1194.4724 
1184.3558 
1173.3251 
1164.1502 
1157.1981 
1156.6613 
1161.5577 
1169.6408 
1171.1097 
1169.7936 
1163.9889 
1149.4766 
1133.1878 
1119.3522 
1110.5454 
1105.9526 
1105.5217 
1105.3194 
1100.3095 
1091.4923 
1077.7987 
1061.0985 
1046.6103 
1035.9215 
1027.2829 
1024.3115 
1020.1511 
1012.5549 
999.9065 
982.5142 
968.1331 
957.5193 
952.1891 
951.9610 
951.7803 
949.4285 
943.4238 
931.2418 
918.1801 
909.0233 
899.8666 
895.6614 
897.0616 
901.8562 
904.3294 
904.8185 
901.7899 
895.0198 
886.3290 
877.2140 
869.1810 
867.1476 
870.3273 
876.5327 
880.4651 
883.4180 
882.3419 
876.4931 
867.7707 
859.1973 
853.6111 
853.6409 
858.9964 
865.7370 
870.5036 
872.4821 
869.9020 
864.3449 
857.7521 
855.0197 
855.8985 
859.2378 
865.1611 
868.8778 
868.2453 
862.7331 
854.9864 
846.5111 
840.2837 
840.9517 
847.1656 
856.8681 
867.5280 
872.6877 
871.7051 
865.3250 
854.4124 
845.5360 
842.6181 
847.1140 
858.4849 
867.5236 
871.7152 
869.8302 
863.4980 
854.1603 
844.6310 
841.5357 
843.7969 
850.5121 
859.8970 
865.0612 
865.7811 
862.2517 
855.7467 
850.8191 
850.4249 
856.4000 
865.3843 
873.2903 
877.1476 
874.7128 
866.8048 
857.5024 
851.1221 
850.8993 
854.5699 
861.1032 
866.2561 
869.9338 
870.9992 
868.9842 
866.2439 
861.5693 
857.5713 
855.4634 
855.7702 
860.9514 
868.6106 
873.4028 
874.8626 
872.8332 
869.0698 
865.1762 
863.6300 
865.0764 
867.3496 
870.2883 
872.0737 
871.5211 
868.8828 
865.1434 
861.9735 
859.0639 
859.9675 
864.4813 
870.5339 
877.8226 
880.3737 
877.8455 
871.7533 
865.9562 
862.0659 
861.8181 
866.9713 
874.7677 
881.9999 
885.8902 
884.6843 
879.0983 
871.4222 
863.7477 
858.3883 
858.4547 
864.0117 
875.2349 
882.9139 
885.8276 
885.3526 
880.6893 
875.9843 
873.8671 
872.7177 
876.3139 
880.8782 
881.7117 
884.0963 
883.0636 
879.1114 
871.5793 
867.5878 
868.1972 
872.6061 
880.5443 
888.3803 
893.5802 
894.9903 
890.5509 
883.7344 
877.5279 
874.8282 
878.3908 
885.2082 
889.6412 
893.1541 
891.2427 
883.7832 
878.5798 
875.5773 
877.2973 
884.9693 
893.0019 
900.0793 
903.5833 
901.4753 
896.3712 
888.8518 
880.3518 
879.9996 
885.6123 
895.3215 
904.0742 
908.6063 
908.6538 
904.8779 
899.9095 
894.7658 
892.7166 
896.7614 
904.0760 
913.1933 
921.4857 
928.1807 
937.9114 
952.0456 
975.7786 
1019.6634 
1111.4347 
1206.9816 
1304.2008 
1371.0549 
1408.0874 
1410.0317 
1391.6682 
1372.5428 
1356.7229 
1344.7586 
1336.0762 
1329.9946 
1324.1357 
1312.1486 
1295.3835 
1274.9914 
1255.4393 
1237.3567 
1222.5189 
1211.7941 
1207.3349 
1201.5474 
1190.8861 
1171.3954 
1142.6056 
1111.0451 
1080.2832 
1051.7326 
1024.5913 
1012.8132 
999.2978 
979.9254 
955.7761 
926.4288 
893.1977 
864.1948 
839.2728 
818.9468 
804.9456 
795.5322 
787.5866 
778.2570 
763.3581 
746.2654 
730.1335 
712.0455 
696.8305 
684.2082 
670.8617 
656.6027 
641.3518 
623.8015 
602.8094 
581.1914 
560.3315 
541.3222 
526.7405 
516.0808 
513.6572 
522.0516 
534.7633 
558.3038 
582.2649 
608.3334 
632.1666 
655.9052 
680.1386 
703.2967 
721.6423 
732.2811 
739.1901 
739.5227 
737.4567 
738.0631 
739.6587 
746.3787 
757.6191 
773.7906 
783.4169 
787.7923 
789.8630 
790.4067 
793.1355 
800.3836 
812.6526 
830.2006 
850.4756 
871.0812 
886.7715 
895.7760 
899.9096 
901.2363 
908.1551 
921.5566 
940.8166 
966.1786 
987.9629 
1004.2593 
1014.5861 
1016.4590 
1014.9429 
1013.3444 
1014.7324 
1022.6323 
1033.7865 
1047.0297 
1054.6223 
1055.8463 
1051.8967 
1044.5839 
1039.8476 
1040.1268 
1046.0626 
1056.0030 
1067.4407 
1076.5670 
1079.0017 
1073.5214 
1064.2303 
1054.6147 
1050.0795 
1051.7969 
1057.9264 
1065.1514 
1069.4299 
1068.7508 
1063.1327 
1055.1877 
1049.2963 
1047.0387 
1048.6940 
1055.3481 
1063.0605 
1068.9002 
1071.5051 
1069.1992 
1066.0929 
1066.9121 
1066.8409 
1071.3610 
1079.1265 
1084.2795 
1089.1264 
1091.8954 
1092.0122 
1092.1517 
1092.2146 
1094.3800 
1099.4715 
1107.0129 
1115.9281 
1123.6456 
1129.1578 
1131.8124 
1132.0958 
1132.6520 
1133.1015 
1134.3978 
1137.0368 
1138.5899 
1139.7328 
1141.1169 
1143.4441 
1142.9529 
1140.0851 
1137.3866 
1136.6368 
1137.4015 
1140.6004 
1144.4289 
1148.8378 
1150.8194 
1149.2002 
1144.5479 
1136.4755 
1129.3914 
1125.4062 
1125.5197 
1130.7502 
1136.3255 
1138.0559 
1134.0448 
1125.9793 
1116.4688 
1108.7944 
1102.9333 
1101.4395 
1104.1167 
1107.4904 
1108.1064 
1103.9828 
1094.1484 
1081.3252 
1069.6133 
1061.8601 
1057.8309 
1058.9686 
1062.1128 
1063.6662 
1058.6564 
1047.6400 
1032.7987 
1020.9468 
1013.1199 
1010.1295 
1010.9386 
1010.6517 
1007.5588 
999.5966 
986.6076 
971.5765 
957.4917 
947.6855 
940.7022 
941.5484 
947.0962 
950.8092 
946.6524 
938.0969 
927.6082 
915.2053 
907.2669 
904.8271 
906.7395 
909.6740 
912.7397 
913.4969 
909.9491 
903.8764 
896.5426 
890.2025 
888.0008 
889.9203 
895.0974 
902.4103 
907.6868 
908.9082 
905.8522 
900.8861 
892.8545 
885.3280 
882.1733 
885.1706 
890.9704 
896.2640 
895.7595 
893.1109 
888.0795 
880.8544 
874.1150 
871.5689 
873.5872 
877.9324 
884.6838 
889.6019 
890.1064 
888.2376 
884.0655 
879.9248 
875.8799 
873.5406 
875.2443 
880.9047 
886.7332 
888.3916 
886.3939 
884.1208 
880.4407 
877.5364 
876.1243 
881.0245 
887.8239 
893.2210 
894.6090 
891.6919 
885.4161 
878.3719 
872.8597 
873.6695 
879.5110 
887.5942 
894.4679 
896.6080 
893.6517 
889.9387 
885.5600 
883.4128 
885.4054 
890.2280 
897.0036 
902.8946 
905.0843 
901.1562 
893.0426 
883.5419 
877.6931 
879.2564 
887.3552 
898.4871 
905.0613 
907.9224 
906.0454 
898.7324 
891.7410 
887.0911 
886.8006 
892.2399 
898.7710 
904.2348 
909.7494 
908.1181 
901.7752 
894.0583 
889.7954 
888.8703 
891.8002 
895.1550 
898.0633 
900.4346 
901.0139 
900.0034 
896.5519 
892.6935 
890.4202 
889.1942 
890.3460 
892.7533 
898.8455 
904.8451 
908.4656 
909.8163 
903.1406 
897.5567 
895.8842 
897.3539 
901.4071 
905.4651 
906.6319 
907.7225 
904.8554 
899.4977 
893.6249 
891.5892 
894.7048 
902.3078 
911.8309 
917.3737 
916.8077 
909.1357 
899.2058 
890.2626 
885.2837 
885.9517 
892.0956 
900.0338 
904.9341 
906.9992 
903.2302 
894.9971 
888.4042 
884.3762 
885.5889 
892.9646 
900.1909 
907.8853 
912.8669 
911.7018 
906.1130 
899.3178 
894.6940 
893.0387 
896.6931 
904.7548 
915.5796 
919.2140 
917.7741 
912.0604 
902.6755 
895.7969 
894.0772 
899.3323 
908.9152 
917.3137 
921.3518 
919.6370 
915.1327 
910.4814 
909.8608 
909.7826 
911.4404 
914.7683 
917.7614 
919.3026 
917.8510 
912.8699 
907.9697 
902.9696 
899.9517 
899.2837 
904.7410 
913.8849 
923.6573 
929.8894 
933.7156 
933.9464 
930.9029 
927.1295 
927.4853 
933.1430 
943.3356 
967.8764 
1003.1006 
1055.1792 
1135.7393 
1217.5670 
1298.9455 
1364.4314 
1398.1005 
1414.2176 
1414.3764 
1410.8658 
1405.3387 
1397.0170 
1387.3250 
1375.4825 
1363.8570 
1354.0211 
1346.9351 
1342.4690 
1336.6405 
1325.4118 
1309.7555 
1294.1999 
1280.9193 
1268.2051 
1255.7757 
1245.0871 
1234.8051 
1217.6736 
1197.0061 
1171.3188 
1139.8859 
1110.0055 
1081.8735 
1056.8717 
1038.4435 
1020.9125 
1005.2236 
985.1784 
960.4300 
931.3191 
899.6061 
866.8756 
837.1782 
813.5029 
797.7531 
788.6832 
777.7058 
762.0878 
743.3392 
722.5252 
702.6341 
687.0682 
672.9811 
662.8891 
654.2864 
641.4405 
625.8904 
605.5076 
580.6420 
555.9999 
534.4221 
517.4198 
509.8713 
509.9226 
512.4329 
515.4503 
527.0214 
541.8297 
559.2695 
580.2876 
603.5037 
629.1817 
655.8255 
678.2574 
698.1302 
712.7798 
721.2431 
723.6889 
724.5604 
726.1331 
727.2982 
736.2557 
748.5118 
760.3363 
771.3511 
773.9721 
770.4155 
764.6304 
761.7743 
763.8583 
771.1263 
784.1110 
799.4318 
814.4024 
828.5860 
834.5970 
835.8508 
835.6249 
837.3397 
842.3831 
852.3960 
867.4158 
879.8312 
887.9692 
893.0229 
900.8290 
908.9588 
919.2190 
932.1500 
945.6896 
959.7819 
971.6585 
979.5261 
982.4877 
982.3158 
981.8153 
983.5027 
988.1001 
994.8856 
1000.8089 
1006.1634 
1007.6197 
1004.6167 
1000.9037 
996.5250 
995.3393 
1000.2117 
1008.6177 
1018.6046 
1027.2669 
1031.6164 
1030.4433 
1024.3693 
1015.5536 
1014.0245 
1014.0954 
1018.1137 
1028.5256 
1038.3716 
1046.1838 
1049.4095 
1047.8560 
1047.5251 
1050.2510 
1057.8799 
1064.8210 
1073.9507 
1083.3024 
1089.5370 
1088.6957 
1084.4729 
1081.7958 
1082.5142 
1087.4152 
1097.4898 
1110.9239 
1123.3994 
1133.4101 
1138.9871 
1138.6989 
1135.9439 
1132.4998 
1129.5065 
1134.8022 
1145.1943 
1157.9458 
1167.6378 
1173.8183 
1174.7736 
1170.3647 
1166.3437 
1164.7061 
1167.6111 
1175.5604 
1183.5145 
1190.2259 
1193.5526 
1192.6653 
1188.8320 
1183.9692 
1180.9761 
1180.6930 
1182.7258 
1185.2798 
1192.6314 
1196.5102 
1195.9804 
1193.3480 
1186.6539 
1179.2859 
1174.0596 
1170.4080 
1172.1971 
1176.2567 
1178.2771 
1176.8137 
1171.2769 
1162.5350 
1151.6224 
1142.2292 
1138.1093 
1141.1653 
1143.4418 
1144.8830 
1142.7000 
1134.3354 
1124.3417 
1114.1999 
1106.7045 
1102.8893 
1103.9241 
1107.0267 
1105.6123 
1100.6784 
1089.4217 
1071.7815 
1055.9170 
1042.5122 
1034.0585 
1032.1141 
1033.2139 
1033.0546 
1028.8675 
1022.1131 
1010.9868 
998.5596 
989.2995 
983.9950 
983.4520 
986.9421 
990.6552 
990.7063 
985.9700 
975.9142 
963.8051 
953.3231 
946.1758 
941.9080 
941.9452 
945.3061 
949.2955 
949.0481 
946.8229 
940.9394 
930.6964 
923.5671 
920.3103 
921.6249 
927.4977 
934.5508 
938.8742 
937.6016 
932.7895 
924.8132 
916.2874 
909.0581 
906.7854 
908.9679 
913.4639 
921.4317 
926.9431 
928.1535 
923.5012 
917.3273 
912.7870 
911.6139 
913.1673 
916.8552 
920.5425 
922.9929 
921.0157 
916.1940 
911.0033 
907.6485 
906.2005 
909.8899 
919.7666 
924.2571 
927.5591 
927.5989 
920.6443 
912.9600 
905.0730 
898.0561 
903.3093 
910.6827 
917.6647 
921.3780 
919.2142 
912.4218 
903.4428 
901.6703 
903.8760 
910.7725 
920.9410 
928.8419 
933.3861 
932.7191 
927.6496 
917.9301 
908.5361 
904.4894 
908.0173 
916.3162 
926.7263 
934.0391 
938.0841 
935.5321 
925.7785 
916.2391 
910.1771 
909.0254 
911.6578 
917.7487 
923.7678 
926.8108 
928.3026 
926.2568 
922.7141 
920.6937 
918.3695 
919.5924 
923.6470 
926.6401 
928.6192 
929.0400 
929.5838 
927.5232 
923.3399 
919.3572 
915.4825 
917.1157 
922.2411 
928.2966 
931.3826 
929.6337 
925.1565 
922.9711 
918.3892 
916.9493 
919.6876 
924.7527 
932.5543 
938.1515 
937.2161 
932.6005 
923.1682 
912.0181 
907.9733 
912.8895 
923.1067 
934.5266 
939.9934 
939.7627 
934.4861 
927.1733 
920.1957 
917.0008 
919.1371 
926.8856 
937.8064 
948.2431 
954.6708 
955.6149 
952.6764 
948.5878 
946.6754 
950.0534 
957.8424 
967.3655 
975.0502 
980.0736 
981.7194 
979.4462 
973.4550 
968.8854 
969.4381 
976.8791 
986.5579 
995.0265 
997.9361 
993.7012 
985.1359 
975.6002 
970.4247 
971.6648 
978.3027 
985.1149 
990.4965 
992.9691 
991.1948 
985.3216 
977.7819 
972.7725 
975.3618 
977.9843 
982.4699 
986.2639 
981.6992 
975.2044 
965.9117 
955.3151 
950.0580 
947.2273 
947.6322 
949.5470 
952.7506 
954.6796 
953.0571 
949.1283 
939.7607 
928.5944 
921.2813 
918.6540 
921.0204 
926.7264 
932.0987 
937.7051 
939.2019 
932.6331 
923.2841 
913.7843 
906.9309 
908.4006 
915.5156 
923.0112 
925.6179 
924.6770 
922.3536 
920.0287 
917.7556 
919.8424 
929.0933 
946.0464 
972.6804 
1010.5254 
1060.5545 
1129.9175 
1211.6434 
1290.6325 
1362.4389 
1395.5048 
1409.7665 
1410.9032 
1403.5642 
1397.7448 
1388.2512 
1375.2130 
1359.9806 
1342.2373 
1328.1933 
1321.8899 
1316.8607 
1312.2692 
1304.6615 
1288.3775 
1267.6929 
1245.4672 
1225.0126 
1206.1238 
1194.1516 
1186.5635 
1177.2296 
1163.2304 
1144.2070 
1120.5901 
1094.6463 
1070.1866 
1048.6921 
1029.4688 
1014.3621 
999.6661 
982.1616 
966.0477 
946.0662 
924.9178 
907.0183 
888.4034 
873.0180 
861.0156 
851.0496 
843.4613 
833.5161 
819.1406 
803.3921 
787.5460 
775.0906 
770.1028 
764.1692 
757.5769 
747.7238 
728.0376 
706.7786 
684.6162 
665.0138 
645.9976 
627.7572 
611.3016 
602.0555 
595.9896 
591.8975 
590.6249 
593.7545 
597.1201 
602.9245 
613.6940 
632.1215 
655.8792 
681.9739 
707.9463 
724.2407 
731.2690 
732.3764 
731.9854 
733.8325 
739.7936 
745.6667 
754.5985 
763.4527 
769.5028 
774.8570 
775.8801 
773.9181 
769.8434 
768.2238 
771.8316 
781.7083 
795.5546 
808.4961 
817.9536 
820.3585 
820.9273 
821.5526 
823.8951 
834.1716 
847.8834 
861.9471 
872.1399 
882.3017 
888.8874 
892.4988 
895.0460 
901.5481 
912.0525 
923.6609 
936.7964 
949.1912 
958.6036 
963.6134 
965.0095 
966.8441 
973.5968 
981.9216 
992.6265 
1003.8033 
1011.8360 
1016.0608 
1015.6838 
1011.6898 
1005.7864 
1002.0172 
1001.8971 
1003.8095 
1009.7487 
1015.7794 
1018.8155 
1021.7472 
1021.1296 
1019.3746 
1020.2340 
1021.4792 
1025.2949 
1031.0029 
1037.5958 
1042.9015 
1046.4088 
1048.3924 
1046.4532 
1044.9945 
1046.6291 
1051.3938 
1059.4751 
1069.0066 
1077.2219 
1082.4561 
1083.2976 
1080.2533 
1073.7483 
1069.5701 
1068.9727 
1071.8043 
1080.4692 
1092.2474 
1103.1037 
1110.0878 
1110.2995 
1106.6571 
1102.3565 
1101.9114 
1106.3364 
1115.2432 
1127.3831 
1136.9187 
1141.0427 
1139.8898 
1135.4568 
1128.1432 
1122.9693 
1122.2258 
1129.8506 
1140.2953 
1149.8744 
1154.8622 
1153.2345 
1148.0462 
1142.5469 
1139.9146 
1142.0919 
1148.2636 
1155.6268 
1162.3979 
1164.3058 
1160.4895 
1156.0565 
1148.9696 
1144.7419 
1148.1744 
1151.8791 
1158.3805 
1164.1549 
1160.5849 
1153.6860 
1143.1558 
1130.7403 
1126.8180 
1127.3451 
1132.1545 
1138.2467 
1140.6377 
1139.2142 
1133.1364 
1123.6635 
1112.9686 
1103.5765 
1097.5264 
1096.5199 
1099.1689 
1102.7517 
1102.5067 
1097.8054 
1088.3341 
1075.5776 
1065.4442 
1056.8458 
1050.9134 
1047.0686 
1045.0598 
1041.0880 
1036.2257 
1027.2835 
1016.6732 
1006.9118 
1001.0386 
996.3879 
996.7369 
1001.6471 
1002.6996 
1001.6292 
996.1750 
985.2866 
972.2561 
961.2125 
954.8994 
955.6491 
959.5121 
964.8933 
970.3799 
970.3433 
963.4143 
951.5526 
938.4802 
929.7444 
926.5647 
928.3988 
935.6080 
943.3083 
948.2254 
947.0330 
938.9549 
928.2743 
918.1717 
913.0801 
914.2671 
919.9382 
928.4381 
935.2956 
936.3726 
931.8361 
923.0833 
915.8733 
912.7056 
914.3217 
921.8093 
930.5271 
936.7735 
934.8885 
928.0815 
919.7764 
913.7209 
914.8111 
921.6884 
932.4118 
942.5166 
948.5758 
949.7228 
946.2646 
940.4795 
937.5134 
939.5929 
947.7279 
956.4800 
964.6812 
969.8594 
973.1842 
971.1525 
966.7767 
964.7161 
966.5644 
970.5920 
976.9573 
987.8699 
995.2372 
997.4951 
993.9189 
985.4749 
975.9812 
968.4243 
964.8764 
965.6336 
969.3762 
973.4472 
975.3596 
974.2745 
970.2568 
965.0534 
959.2252 
956.6883 
958.7276 
966.0403 
973.5275 
979.3993 
983.1663 
983.3706 
978.6253 
970.9723 
960.1432 
952.1238 
948.5327 
948.7090 
952.8845 
953.4939 
949.9762 
944.6039 
936.6155 
929.3809 
924.7177 
926.9911 
931.8494 
936.2018 
937.2123 
933.7951 
925.5056 
914.5552 
905.4408 
900.2868 
899.4629 
901.4201 
909.2267 
913.4028 
912.0283 
907.9536 
902.0429 
897.2340 
895.9768 
898.4575 
903.0211 
907.2995 
908.8529 
906.3075 
900.9621 
895.2467 
889.1545 
887.8924 
892.6091 
902.7776 
909.6003 
912.4690 
909.5440 
900.8748 
890.0701 
880.3272 
875.5606 
879.5494 
886.7012 
894.6796 
901.9924 
904.9803 
902.4178 
894.8240 
889.4632 
886.8107 
888.3055 
892.3777 
898.7487 
904.2147 
905.6755 
901.4077 
895.3712 
889.4294 
886.6890 
888.0405 
892.6228 
898.9072 
904.0602 
905.7137 
903.4461 
898.9502 
893.1452 
888.8101 
888.2207 
890.1056 
895.8462 
902.7230 
907.3386 
909.6486 
908.8320 
905.1261 
897.9011 
893.0030 
891.4219 
892.7273 
897.0725 
900.4155 
901.4619 
901.9664 
897.5772 
892.9524 
891.4849 
893.1997 
896.8533 
902.2910 
907.9514 
909.7145 
908.8852 
905.9412 
902.2281 
899.3999 
897.7698 
896.3063 
897.6406 
901.1530 
904.4263 
907.2542 
907.4749 
904.3205 
899.5294 
896.1771 
898.5143 
905.5833 
914.3865 
923.7970 
928.3058 
926.4206 
921.2677 
914.9638 
912.9158 
920.6680 
934.5699 
956.2300 
984.3707 
1023.9980 
1077.0524 
1151.1044 
1232.2829 
1310.1937 
1370.1992 
1411.1534 
1423.0052 
1420.5070 
1412.0298 
1400.1901 
1386.3975 
1371.8040 
1358.4832 
1347.3933 
1335.2912 
1324.0790 
1312.2126 
1301.8882 
1290.5090 
1276.6223 
1260.9860 
1247.9261 
1235.4023 
1224.2973 
1213.9729 
1203.9128 
1190.2117 
1169.1504 
1145.0291 
1118.4457 
1091.5955 
1066.2837 
1044.5070 
1024.0298 
1010.6518 
995.8653 
980.2628 
962.1447 
941.8968 
920.1220 
897.8298 
876.9414 
861.1322 
849.4025 
840.8245 
835.5117 
824.0562 
808.5928 
791.0893 
772.9773 
759.1784 
749.9533 
743.8679 
736.2615 
726.3690 
711.8824 
691.2512 
669.4403 
648.5555 
631.2370 
617.5060 
608.2263 
601.3232 
593.9842 
589.1824 
585.3154 
583.5432 
586.3097 
595.4497 
611.7966 
635.0113 
662.7557 
689.4267 
711.5821 
725.5361 
733.0266 
735.4788 
734.4630 
740.5346 
752.4165 
767.5961 
779.1409 
786.6749 
789.2735 
787.2541 
782.1889 
778.5612 
779.1659 
785.8609 
795.6352 
805.3230 
811.9060 
816.6708 
819.9483 
821.9108 
824.1700 
832.2365 
844.2560 
859.2898 
873.8022 
886.9093 
895.9222 
899.5455 
902.4061 
904.0314 
907.3940 
915.3654 
927.6418 
942.0518 
955.4706 
966.0224 
973.9816 
979.3116 
983.4677 
985.2345 
989.5775 
997.9026 
1008.8151 
1017.0362 
1021.5428 
1022.4301 
1021.6611 
1017.7152 
1013.2909 
1013.2611 
1017.6337 
1025.5082 
1034.3239 
1042.2917 
1047.8999 
1048.0835 
1043.4312 
1037.8862 
1034.6937 
1035.7481 
1041.6200 
1050.5052 
1059.1773 
1064.5075 
1063.6143 
1061.3539 
1061.0103 
1059.0954 
1060.1841 
1065.9133 
1076.5099 
1086.4683 
1093.9220 
1097.0948 
1093.7400 
1088.0312 
1082.9843 
1081.0071 
1087.5252 
1098.8309 
1111.7604 
1121.9532 
1125.8163 
1125.3390 
1123.2327 
1119.3074 
1119.2833 
1124.0548 
1132.0635 
1141.5992 
1148.7607 
1151.0481 
1150.2984 
1146.4354 
1142.9165 
1143.9095 
1149.7536 
1158.0349 
1166.5793 
1173.1721 
1174.4295 
1171.8740 
1168.6000 
1166.8237 
1163.7804 
1162.5272 
1168.0394 
1176.4185 
1184.3558 
1188.7128 
1188.0483 
1185.9896 
1183.3827 
1180.6424 
1181.3859 
1186.2435 
1193.9306 
1199.0835 
1202.6763 
1203.0459 
1200.7098 
1198.9491 
1197.1193 
1197.1331 
1198.2982 
1202.2872 
1207.2633 
1210.4390 
1210.6101 
1207.2031 
1201.2533 
1194.7483 
1190.0147 
1188.7440 
1190.7623 
1190.8158 
1187.6745 
1180.0990 
1169.8042 
1156.4243 
1143.7435 
1134.9131 
1125.8286 
1122.0657 
1121.7438 
1121.6445 
1118.3061 
1113.7977 
1108.0730 
1096.4405 
1082.6053 
1070.0136 
1059.9107 
1058.6873 
1058.4272 
1055.7904 
1048.5390 
1038.5309 
1028.1034 
1017.5644 
1009.1783 
1004.2704 
1002.5460 
1001.9897 
1002.0059 
998.1553 
988.9014 
972.9492 
956.8051 
944.3008 
939.0939 
940.6352 
945.6501 
950.8060 
951.5557 
945.3359 
934.8092 
923.8336 
914.3851 
911.0954 
914.2677 
921.0799 
924.3541 
923.9469 
919.2928 
909.1139 
896.7865 
886.3046 
883.1343 
886.7626 
894.7640 
904.1764 
909.6910 
910.7727 
906.5068 
897.3501 
890.7231 
885.8178 
884.0616 
888.8562 
895.4869 
901.7123 
905.8494 
901.5262 
895.5344 
889.8464 
883.2533 
880.2071 
880.9679 
883.7941 
890.5573 
894.3364 
894.3337 
892.8047 
890.3402 
887.8683 
886.9694 
887.7191 
890.6393 
893.6985 
894.8653 
893.7120 
890.4411 
886.4977 
880.6249 
876.9976 
877.8366 
883.2705 
893.9394 
904.7319 
912.0446 
910.1322 
904.2513 
895.4843 
885.3677 
882.3986 
884.7677 
889.9417 
894.1219 
895.4088 
892.7051 
887.1185 
883.4054 
881.2583 
882.7266 
887.9425 
897.0229 
903.6099 
904.3068 
897.3821 
889.1515 
880.5698 
873.7944 
873.3782 
879.5250 
889.9660 
897.9110 
901.3307 
900.6995 
897.2412 
890.7467 
886.0851 
884.7399 
884.9554 
889.4403 
894.1352 
895.7310 
897.6160 
893.7220 
886.6915 
881.0311 
879.8619 
882.8943 
889.4730 
896.7859 
899.6526 
898.5418 
894.9656 
887.2369 
880.0174 
876.2773 
877.7691 
883.0175 
891.5932 
901.4122 
903.4063 
901.8229 
897.2101 
892.0068 
886.8366 
884.4036 
885.5129 
888.5059 
893.1004 
896.3433 
896.5106 
889.3251 
881.6918 
877.1089 
875.6391 
881.1098 
890.4732 
899.2889 
905.9102 
908.6794 
907.0602 
902.4079 
897.9691 
894.6131 
892.7877 
895.7682 
899.6149 
902.8366 
906.7269 
902.0810 
894.4869 
887.8026 
881.5680 
882.0943 
888.8433 
899.4399 
908.1567 
912.4261 
910.7389 
903.7844 
894.9938 
887.5316 
884.1145 
887.7900 
895.0222 
903.1361 
909.7292 
908.4009 
902.4066 
895.2607 
891.9783 
890.9472 
894.0082 
902.0168 
912.1383 
918.5261 
917.7307 
909.0615 
898.6757 
889.9071 
887.3004 
890.7839 
899.0361 
909.4369 
914.5898 
914.4540 
910.3886 
905.6747 
903.0769 
901.7173 
903.8072 
911.4793 
917.6589 
923.3442 
927.7011 
930.5722 
929.0701 
925.1914 
921.7310 
920.5854 
926.0358 
938.6400 
963.9517 
999.3018 
1038.5313 
1114.5873 
1197.5314 
1274.8276 
1343.7644 
1374.4475 
1384.2861 
1379.8012 
1362.0983 
1350.6743 
1338.7480 
1326.1110 
1311.6864 
1295.2387 
1281.2959 
1271.0750 
1261.7738 
1254.8495 
1247.0955 
1236.0808 
1221.3858 
1205.0714 
1189.8548 
1175.0106 
1161.2955 
1148.5512 
1135.4928 
1119.8300 
1099.2038 
1073.3904 
1041.5992 
1007.1782 
976.9775 
953.1955 
935.5484 
918.7411 
900.1731 
880.6825 
855.8016 
827.3473 
798.0895 
768.1865 
742.9706 
723.1003 
709.5848 
698.3536 
685.5404 
670.1313 
656.3389 
645.1155 
638.1106 
635.7835 
634.5606 
633.5590 
630.0370 
621.4274 
604.9030 
582.8885 
558.9538 
536.5461 
516.7932 
507.7333 
503.7461 
508.2141 
516.2445 
525.9894 
538.5573 
553.8869 
570.2580 
592.2860 
615.2550 
640.0394 
664.5638 
683.7576 
696.6863 
703.4473 
705.8098 
707.5516 
710.6124 
716.4256 
725.5400 
736.4904 
747.0005 
755.4573 
756.8447 
754.2718 
750.1825 
745.7492 
746.4953 
752.6284 
762.6541 
777.9470 
792.4659 
804.2357 
812.7860 
816.3297 
820.4552 
828.3019 
839.8510 
854.0536 
869.8782 
887.6039 
902.3550 
913.5065 
922.6879 
931.2141 
939.5121 
950.9078 
966.4210 
983.1436 
1000.4075 
1015.4098 
1023.5767 
1026.1813 
1026.0864 
1027.0947 
1028.6507 
1034.8856 
1044.3536 
1055.7334 
1061.3143 
1061.9000 
1058.9411 
1050.1883 
1044.8476 
1045.2388 
1052.6146 
1058.8840 
1064.3217 
1066.8085 
1064.9235 
1059.1830 
1053.1206 
1051.3848 
1057.2779 
1066.0653 
1075.8447 
1083.0697 
1086.8920 
1084.6248 
1075.4069 
1066.6533 
1059.7969 
1057.5894 
1062.1246 
1070.9176 
1082.0616 
1092.8244 
1099.0291 
1100.8620 
1099.7440 
1098.4034 
1099.0498 
1105.2198 
1116.8616 
1129.2141 
1137.2022 
1139.1311 
1134.1149 
1125.6149 
1116.8751 
1110.7580 
1108.6501 
1111.9207 
1117.2245 
1120.5639 
1126.6093 
1128.9058 
1127.7329 
1125.4093 
1121.9895 
1121.0197 
1123.6085 
1128.7615 
1135.4925 
1141.2243 
1144.9913 
1144.5445 
1139.3243 
1131.6935 
1125.1841 
1123.5731 
1125.7112 
1128.7673 
1128.9848 
1125.2745 
1116.6016 
1101.1500 
1085.3647 
1073.8815 
1069.8963 
1069.3143 
1070.0116 
1069.3243 
1065.2951 
1056.2630 
1042.3539 
1027.7349 
1017.1806 
1011.4969 
1009.7978 
1008.1552 
1004.0529 
997.0842 
986.4448 
975.1706 
963.0499 
952.0520 
943.5952 
939.5660 
939.2533 
939.3998 
933.0337 
921.5000 
907.6377 
895.4521 
883.6003 
878.0954 
878.8880 
881.1370 
880.8944 
878.7968 
873.8801 
868.0907 
858.7341 
849.1883 
843.7018 
840.5879 
840.6277 
842.0192 
841.4125 
839.5124 
835.8040 
832.5300 
831.3138 
829.9239 
829.6170 
828.6496 
827.3496 
824.7876 
819.0652 
811.8102 
805.1973 
800.2894 
797.5490 
798.2925 
799.9518 
799.9131 
801.4663 
804.6052 
808.0716 
814.3749 
816.2362 
815.0050 
812.6081 
806.5735 
802.4249 
799.6344 
797.0504 
799.2659 
799.8087 
799.1752 
799.8696 
799.1664 
799.3099 
799.8883 
799.3338 
800.5555 
800.8295 
798.4542 
794.6857 
790.1939 
787.3215 
787.5964 
791.3399 
797.3260 
802.9864 
808.4881 
809.1524 
804.3904 
794.9177 
787.3124 
783.5784 
784.2748 
794.3151 
803.3712 
807.7752 
806.2834 
801.0175 
794.2504 
789.4711 
786.1771 
787.9986 
794.6090 
804.1321 
812.4458 
815.9803 
813.3331 
804.5804 
793.8109 
785.6567 
785.4894 
791.3669 
799.9943 
808.0265 
810.9361 
806.0127 
796.5793 
787.7636 
785.0245 
788.0545 
796.7835 
807.9153 
813.5537 
813.8373 
808.4631 
799.6798 
794.1167 
793.6232 
797.6524 
803.8315 
810.0662 
813.1064 
815.0213 
811.6280 
804.4461 
798.8891 
793.9413 
790.8983 
790.6695 
789.7046 
792.5312 
795.3891 
795.2064 
793.8401 
789.4877 
784.6259 
783.7924 
783.8862 
786.8302 
791.8163 
795.7801 
798.7214 
798.7036 
794.2947 
789.4953 
784.9803 
782.0394 
782.7891 
784.4118 
785.2877 
784.2947 
783.3433 
778.7083 
771.4977 
765.6249 
761.0687 
760.6289 
765.3428 
772.5613 
776.3527 
774.4728 
768.2407 
759.1416 
751.1681 
748.2510 
747.5772 
754.0722 
764.4971 
771.5572 
775.1334 
772.2699 
762.9201 
748.4077 
735.9316 
729.5130 
734.0090 
740.5024 
749.2739 
758.0069 
759.0017 
754.6812 
747.2034 
738.9881 
734.4529 
738.3617 
749.0057 
757.6706 
762.9562 
761.9527 
753.4548 
739.8855 
729.9848 
726.2907 
729.3860 
737.8592 
747.5389 
754.7368 
760.2216 
757.7686 
750.3367 
743.2365 
736.3182 
734.8476 
739.5862 
749.0589 
755.2197 
756.7938 
753.9376 
745.0163 
736.9941 
733.8887 
741.1402 
753.7468 
769.9269 
786.9455 
799.0422 
813.1601 
832.9044 
872.3382 
944.0431 
1016.3698 
1124.2176 
1221.5246 
1319.4971 
1396.6467 
1406.8933 
1382.7043 
1352.5891 
1325.9537 
1306.4851 
1290.9348 
1278.6855 
1267.3426 
1255.7608 
1239.8031 
1219.0812 
1197.8700 
1175.8011 
1156.2934 
1141.5089 
1130.8231 
1120.2531 
1106.7082 
1086.8400 
1057.4719 
1022.4437 
982.7267 
951.2938 
925.1515 
904.6589 
888.6173 
873.7822 
855.7528 
832.3842 
801.6712 
770.0884 
740.2842 
714.5485 
699.6699 
689.2661 
680.2434 
670.9976 
657.6529 
640.7894 
622.8442 
601.8196 
583.6415 
570.9545 
567.4439 
572.2094 
575.7490 
572.9081 
561.3591 
542.7166 
520.9678 
506.7858 
500.2378 
499.3535 
502.3342 
505.3273 
503.6069 
497.3559 
489.0422 
487.8622 
491.2413 
500.4432 
514.9548 
535.6157 
553.2193 
566.2157 
575.5885 
580.1880 
582.0922 
584.3915 
591.2972 
601.8258 
613.9994 
618.4324 
617.3006 
611.3318 
606.1159 
604.3050 
603.9070 
606.3782 
611.8629 
616.8765 
621.5690 
625.4647 
630.8050 
634.8904 
638.2195 
640.3539 
643.2539 
649.0123 
657.5102 
670.3759 
684.4061 
696.6439 
705.0679 
707.5713 
706.7190 
705.2982 
712.0526 
722.2990 
735.8955 
753.0751 
759.8533 
762.7102 
763.5561 
756.2433 
749.3357 
746.0008 
748.1371 
756.3151 
766.5275 
775.3657 
778.9135 
778.6756 
775.4663 
771.4069 
770.8936 
773.1771 
778.4433 
787.2464 
797.6348 
805.2113 
808.3658 
803.2210 
797.4025 
794.4502 
797.8827 
808.5221 
821.8706 
833.9880 
836.1777 
830.1376 
819.2176 
808.9620 
810.4457 
820.6181 
838.5618 
857.6131 
870.7812 
876.6331 
873.4188 
864.0719 
855.2498 
850.1646 
852.0339 
861.1197 
874.5679 
889.1181 
898.2441 
905.1484 
908.6946 
908.8973 
905.5154 
904.4969 
907.9122 
909.8271 
916.4414 
923.0157 
924.9929 
927.6394 
925.8214 
921.5675 
920.7341 
920.8979 
923.8536 
928.8396 
931.4616 
934.8883 
937.2754 
936.4663 
931.9037 
927.0036 
924.0709 
922.6748 
923.0687 
922.4313 
917.1185 
906.9956 
896.4038 
888.4977 
882.6249 
880.0197 
879.4842 
876.2786 
871.7387 
866.5522 
859.5953 
854.0832 
846.7355 
839.2136 
833.4167 
828.5468 
828.6510 
831.4341 
832.0146 
830.7775 
824.2267 
812.0391 
796.8208 
781.4485 
770.2598 
768.9961 
773.9073 
780.9203 
786.7268 
782.6820 
773.3569 
760.6912 
746.7162 
738.3257 
737.0875 
741.8960 
749.8410 
753.9153 
752.0227 
743.5248 
727.3044 
712.4585 
703.0387 
704.6940 
710.5838 
717.9555 
723.6960 
724.8669 
720.7920 
713.1944 
705.3742 
701.9401 
705.3587 
715.4380 
722.7509 
727.7576 
728.0307 
722.2946 
716.2427 
709.9824 
705.8782 
704.4902 
703.8133 
704.3843 
704.8440 
705.1298 
703.2161 
699.2533 
694.7699 
694.2613 
698.2041 
706.5689 
715.3496 
722.1704 
723.6618 
715.9096 
703.9435 
691.4328 
682.0062 
679.8165 
681.5567 
686.2130 
690.7090 
694.3104 
691.7331 
682.4837 
672.7918 
661.7415 
655.1114 
657.6057 
658.8219 
662.1820 
664.7584 
662.1691 
658.4637 
654.6619 
653.7909 
654.7559 
661.4082 
673.2400 
686.7165 
692.5021 
689.4763 
676.1193 
652.6058 
625.3707 
599.7743 
581.9581 
576.1448 
576.1424 
578.8887 
584.0419 
581.5187 
573.2865 
562.5408 
555.4836 
554.4408 
561.3092 
578.6773 
594.2678 
605.5261 
609.8988 
608.4477 
602.5730 
596.7403 
598.4533 
606.1515 
617.4468 
629.1382 
626.3716 
617.0456 
601.5496 
582.4366 
567.7852 
558.4770 
556.1071 
558.7395 
564.7487 
571.5390 
576.6160 
575.3785 
572.7095 
571.1832 
574.9224 
584.8934 
601.4944 
623.7614 
644.7848 
662.8817 
677.2384 
690.7413 
698.6936 
703.7413 
708.3373 
714.5420 
724.6023 
735.1594 
741.2149 
748.6218 
751.6453 
750.5976 
747.6922 
745.0788 
745.5701 
749.7483 
756.9219 
766.3116 
774.5039 
776.4483 
775.2610 
772.3923 
770.2515 
771.9663 
778.0528 
787.9795 
801.5593 
813.7110 
820.6168 
821.7358 
818.7427 
813.3590 
808.6857 
805.7824 
810.1295 
818.4575 
827.9281 
837.9555 
844.6931 
849.6168 
855.6368 
856.5144 
859.5645 
864.7642 
869.2476 
873.6161 
876.3163 
877.3110 
870.0880 
861.6826 
856.0978 
858.0904 
866.0576 
877.4587 
889.1070 
894.1765 
892.0430 
884.2759 
874.0203 
867.7981 
866.0954 
869.4206 
878.3926 
887.6984 
894.2643 
896.0897 
893.8164 
888.6360 
883.4575 
881.0071 
882.9843 
887.7150 
892.1858 
896.2325 
898.9022 
899.2979 
898.0607 
896.8234 
894.6987 
891.7792 
888.6544 
888.2967 
887.7170 
884.6545 
884.0443 
880.0956 
874.1171 
868.9639 
866.8990 
867.3005 
867.2469 
868.8548 
867.9793 
863.8903 
860.9213 
857.5152 
855.3514 
856.0184 
856.1544 
858.0232 
859.4511 
858.4581 
855.5895 
845.7725 
829.0812 
810.9691 
800.3044 
797.4679 
801.4618 
809.7865 
816.1671 
817.4378 
809.7658 
797.7145 
785.8005 
778.5637 
775.6320 
778.2449 
784.2427 
789.8629 
792.5430 
790.1777 
783.0298 
774.9970 
767.3062 
763.2027 
766.2587 
772.5024 
778.0534 
779.8202 
777.2153 
773.5342 
769.2128 
764.5972 
761.1694 
760.3955 
761.4946 
765.1199 
768.9328 
770.0985 
768.0802 
759.7583 
753.5624 
752.2440 
755.3393 
761.5722 
769.2063 
775.6668 
773.3546 
768.6601 
762.2177 
754.3975 
752.0930 
753.5454 
757.4042 
763.9971 
770.1672 
773.3633 
772.6669 
767.8646 
761.6288 
756.9517 
756.2837 
761.9277 
770.9164 
779.2955 
783.4845 
780.5335 
771.1016 
758.6987 
748.5881 
744.0197 
746.6249 
756.0042 
766.1424 
774.1904 
778.6774 
777.2072 
772.5985 
767.8685 
761.3591 
760.1740 
763.2480 
767.7440 
775.0583 
778.9268 
778.5129 
780.3402 
780.3320 
780.8559 
782.6302 
782.5594 
784.4679 
785.5390 
780.7899 
777.0157 
771.4869 
764.8562 
760.0616 
757.9671 
760.7032 
772.0198 
782.1766 
788.3724 
788.9186 
783.4040 
774.2144 
765.9843 
764.0071 
764.5987 
768.5707 
774.0556 
781.3686 
785.0823 
784.5502 
781.0040 
776.4731 
776.3708 
781.7223 
789.0110 
795.6703 
799.4071 
798.0201 
795.0265 
790.2603 
785.8138 
783.2071 
780.1841 
779.8728 
781.4276 
784.4206 
786.8974 
786.5205 
782.5265 
779.7969 
778.5306 
780.2938 
785.0860 
791.7487 
798.5157 
803.5926 
802.3902 
797.3712 
790.7573 
785.1371 
783.0008 
785.0370 
790.0251 
798.6891 
804.9879 
807.2046 
806.3084 
803.9631 
800.3399 
797.0456 
794.6109 
795.5743 
797.7289 
798.0247 
800.1959 
799.8892 
797.5964 
795.4110 
792.5701 
792.7871 
797.6852 
802.9394 
808.5800 
812.0582 
811.1228 
805.9704 
799.5755 
795.2748 
793.4365 
795.9233 
801.7706 
809.5908 
814.8067 
814.2633 
807.5958 
801.0029 
795.2949 
793.0008 
795.1371 
802.6056 
811.7154 
819.1603 
821.2682 
818.0793 
811.1011 
802.7220 
797.2098 
800.1829 
810.4690 
819.9921 
827.7702 
829.9581 
824.4731 
815.7205 
807.5484 
802.7921 
803.3447 
809.2618 
817.2988 
824.0872 
829.8766 
830.8085 
826.6843 
817.8686 
815.4994 
817.4349 
823.2094 
830.0215 
835.1884 
835.6529 
828.8389 
820.5445 
812.2498 
807.4026 
812.1518 
820.7941 
830.5131 
837.1438 
837.7727 
834.7015 
827.8743 
819.4376 
813.2972 
811.1095 
814.1316 
822.5260 
832.7564 
841.5373 
845.6743 
846.6114 
842.7502 
836.1825 
831.7492 
830.4276 
832.9002 
837.8863 
841.8851 
843.9046 
842.8553 
839.8863 
834.3238 
829.5567 
828.0639 
828.8942 
835.6487 
844.9960 
851.9225 
855.2079 
855.3793 
854.6389 
856.6855 
860.6417 
868.0455 
878.5190 
891.4272 
906.4740 
922.7657 
946.0517 
984.1976 
1031.0152 
1126.0118 
1218.7907 
1314.9019 
1412.9498 
1510.0041 
1566.3283 
1582.3877 
1552.9213 
1523.9538 
1499.1381 
1480.8409 
1470.9378 
1464.2107 
1455.0755 
1439.4818 
1414.5583 
1385.7793 
1355.3691 
1326.2751 
1305.1413 
1288.1866 
1273.1037 
1256.5703 
1236.2362 
1210.4042 
1178.8678 
1144.3534 
1110.3255 
1080.4902 
1061.9869 
1045.5710 
1029.1515 
1009.6937 
984.3079 
953.6414 
919.6670 
886.6484 
858.5165 
837.0028 
822.1207 
809.2748 
796.8953 
782.9327 
767.8372 
754.1400 
741.3173 
731.6507 
726.6629 
723.0397 
720.7309 
718.3107 
715.6233 
708.8638 
698.6442 
689.8411 
681.1878 
675.5215 
673.8069 
676.7393 
679.5788 
680.7319 
683.0590 
681.7417 
677.8645 
674.0015 
673.2518 
676.9044 
684.9749 
696.6705 
706.8390 
715.1823 
721.3356 
722.4429 
722.2386 
723.6680 
728.3222 
734.4800 
743.9626 
754.4293 
764.0792 
767.1872 
764.4869 
757.8562 
752.3731 
751.2273 
755.1082 
763.5449 
770.8452 
777.6548 
784.0119 
785.6968 
785.9938 
786.9925 
789.3350 
796.1051 
805.5613 
815.1046 
823.8575 
827.5362 
826.9189 
824.8127 
824.3354 
828.5061 
838.5624 
853.0507 
865.9014 
875.4328 
879.8054 
881.1502 
878.6326 
876.8254 
885.7380 
894.3277 
904.6861 
915.4953 
920.6482 
922.0865 
918.6628 
911.0691 
904.6930 
901.1573 
902.4572 
910.1292 
919.2084 
928.3185 
936.2752 
934.7554 
929.7376 
924.0163 
920.5560 
920.5796 
925.7721 
935.7999 
946.7125 
955.1828 
959.5360 
960.7997 
960.0250 
958.4834 
958.1331 
959.2982 
964.7645 
972.1361 
978.1916 
985.4117 
989.4586 
990.6174 
989.8719 
991.4534 
997.6238 
1009.0015 
1019.4797 
1030.4901 
1039.6428 
1045.1881 
1045.5959 
1042.0539 
1039.1931 
1038.8181 
1043.5546 
1052.3715 
1063.7915 
1071.4776 
1074.5760 
1073.6331 
1072.7999 
1071.9623 
1073.6589 
1078.6750 
1085.3617 
1092.0468 
1096.0483 
1096.7163 
1092.5951 
1086.1571 
1081.3777 
1079.4653 
1082.2693 
1089.5063 
1099.7494 
1108.7830 
1114.1996 
1115.1943 
1110.1860 
1102.3488 
1094.6672 
1088.7403 
1088.1545 
1090.5859 
1093.0195 
1094.4892 
1091.5565 
1083.7392 
1070.6037 
1062.0117 
1059.0954 
1062.0682 
1066.7205 
1067.8419 
1063.3367 
1051.4830 
1036.8525 
1025.0724 
1015.3746 
1012.2043 
1011.8933 
1013.0860 
1012.5172 
1009.4297 
1003.5521 
994.9094 
986.4726 
978.5982 
973.3802 
972.0452 
971.8002 
972.5067 
971.5559 
967.0536 
962.3383 
955.4282 
948.0984 
942.2253 
939.9690 
940.3086 
939.5351 
935.2189 
929.6491 
922.1669 
913.4383 
905.2690 
900.0398 
899.9869 
902.2921 
905.5880 
908.9494 
915.8758 
918.0271 
916.1611 
912.4942 
904.4615 
898.3733 
894.9043 
891.6987 
891.5053 
891.8603 
890.9862 
890.5137 
885.7320 
879.9207 
876.2837 
876.3111 
881.7105 
890.6453 
899.8652 
899.8767 
892.7821 
881.3145 
870.3225 
863.0471 
861.5866 
866.8024 
876.8630 
887.3404 
894.8669 
896.5817 
893.1212 
886.5500 
879.0546 
874.6396 
873.5589 
874.9054 
884.2903 
892.7870 
897.2280 
895.9297 
887.1889 
879.0781 
874.8800 
875.0954 
880.0296 
885.4852 
886.9060 
888.5460 
886.0592 
880.7405 
875.8001 
872.9051 
874.6842 
881.4007 
890.1535 
898.0214 
901.6818 
898.1056 
889.2497 
879.6732 
872.9132 
871.5252 
877.3128 
886.8464 
895.2255 
897.5463 
894.7482 
888.0701 
882.8667 
878.8728 
878.4958 
882.5409 
889.1757 
896.8320 
902.8147 
905.8618 
904.6950 
899.9964 
893.9735 
887.4758 
885.3689 
887.6330 
893.5689 
898.5753 
899.9046 
896.9575 
893.0251 
888.2818 
885.6120 
886.6664 
890.5454 
897.1073 
903.3115 
903.6020 
902.0495 
898.1975 
893.7267 
889.7384 
890.4175 
896.0731 
904.5099 
911.2769 
913.9430 
910.9489 
899.6957 
887.8947 
879.1407 
877.8834 
885.2276 
897.0957 
910.0707 
919.5437 
922.5374 
920.6529 
917.8267 
913.4264 
911.8072 
914.9557 
925.1242 
934.2409 
941.8575 
947.6701 
948.4046 
943.2125 
935.0740 
928.1475 
925.4350 
928.2391 
935.4976 
942.0904 
944.1098 
940.8530 
933.9792 
930.0618 
928.4373 
930.3172 
936.5493 
945.1734 
953.0793 
956.7163 
956.0483 
951.3712 
944.3839 
935.1640 
928.3987 
924.9495 
923.4580 
926.2236 
927.9692 
927.6830 
930.3866 
927.7146 
921.6946 
914.1681 
913.8699 
917.0165 
921.2003 
922.9361 
925.1492 
921.3198 
911.1857 
903.2407 
898.0963 
897.1827 
899.9209 
904.3525 
909.5566 
913.0348 
912.0994 
911.0778 
908.5521 
904.2515 
901.1133 
903.3399 
909.6107 
916.7110 
922.3131 
924.2446 
922.5678 
918.1418 
914.1607 
913.1536 
916.0099 
924.1284 
937.0619 
952.7671 
969.2741 
986.2018 
1006.1828 
1042.9530 
1119.6427 
1206.9309 
1303.2741 
1401.3515 
1498.2194 
1579.1635 
1629.8349 
1603.3062 
1570.0653 
1539.7442 
1520.8582 
1510.6014 
1503.5660 
1495.1899 
1476.5826 
1450.9007 
1420.2036 
1389.7893 
1362.6768 
1341.3066 
1326.3669 
1314.4603 
1304.3016 
1291.9925 
1274.3791 
1251.4045 
1223.3081 
1192.7527 
1162.9441 
1137.5631 
1116.4268 
1097.8590 
1080.1391 
1057.8730 
1034.7273 
1011.8915 
990.1572 
972.3545 
960.2296 
950.6439 
944.5978 
938.0052 
925.5833 
906.9626 
887.7152 
871.9398 
861.7469 
857.5338 
858.7567 
863.0228 
865.0648 
862.0540 
852.7351 
838.9668 
824.1815 
809.4190 
794.9670 
788.2664 
784.9299 
782.4768 
780.0438 
775.0457 
767.2276 
758.5292 
753.3343 
751.8785 
755.4340 
763.7477 
775.0386 
784.9874 
791.0271 
792.7144 
792.0039 
791.0549 
791.7376 
796.7254 
805.0244 
814.5869 
823.8069 
828.5255 
828.6200 
825.7917 
820.7414 
815.6819 
813.3462 
817.1221 
827.3414 
838.2704 
845.7968 
847.5350 
844.5377 
839.6223 
837.1666 
843.0958 
854.4935 
868.9987 
881.9834 
890.7695 
893.6178 
890.1596 
883.7467 
880.2310 
882.6478 
890.7827 
905.6434 
922.6392 
937.0192 
945.5413 
948.7593 
948.8980 
951.8771 
956.3660 
963.7181 
973.3144 
977.8757 
978.4344 
973.9700 
966.7940 
963.7643 
962.3908 
964.2469 
971.4984 
980.7212 
990.9981 
1000.0972 
1005.7027 
1006.8626 
1003.8472 
996.4840 
992.8623 
993.9252 
999.4102 
1008.8291 
1016.2638 
1019.0247 
1017.0322 
1012.4639 
1009.1889 
1011.8055 
1017.5353 
1025.5381 
1039.5199 
1049.7755 
1056.1610 
1058.8218 
1057.9738 
1055.4814 
1050.3273 
1046.7858 
1048.5602 
1058.1860 
1071.5495 
1085.2613 
1095.6312 
1098.5419 
1095.7121 
1089.8014 
1085.0616 
1084.2273 
1088.5632 
1100.5998 
1111.5465 
1119.3619 
1122.8474 
1123.7820 
1121.2121 
1118.5631 
1119.4657 
1126.5497 
1137.0771 
1147.8910 
1154.4841 
1153.2632 
1145.3821 
1133.9165 
1122.1604 
1116.4396 
1118.5531 
1125.1218 
1134.2258 
1141.6673 
1143.8801 
1141.0265 
1133.8519 
1125.8476 
1123.9608 
1126.8317 
1132.4363 
1137.5349 
1139.1534 
1134.8974 
1124.8717 
1112.9582 
1103.9194 
1098.1771 
1097.1771 
1100.5294 
1105.3590 
1108.2473 
1104.6848 
1091.2093 
1074.9114 
1059.3792 
1049.4393 
1046.5037 
1049.5177 
1055.9457 
1059.9447 
1059.7078 
1053.1136 
1039.2081 
1026.0717 
1012.7144 
1002.3082 
1003.2982 
1007.8964 
1012.9739 
1013.2698 
1011.0500 
1004.0876 
993.0316 
979.3270 
970.7218 
967.8420 
969.1403 
975.2533 
981.5450 
984.8376 
981.7424 
974.4652 
965.8753 
959.4148 
955.4867 
955.8136 
959.2945 
964.2349 
968.1952 
967.8910 
962.6145 
951.7952 
940.5037 
932.1536 
929.9703 
934.7573 
943.4785 
953.1953 
958.9030 
957.5402 
950.8444 
941.0254 
933.4525 
932.1771 
937.3290 
946.8520 
954.6651 
958.4213 
957.2561 
953.4836 
949.4854 
948.0581 
950.7706 
958.7776 
969.5649 
979.9075 
983.6362 
980.7630 
972.5093 
962.2537 
957.0047 
959.0942 
969.3529 
982.6446 
992.5922 
998.8431 
1003.5483 
1001.0567 
995.5893 
990.2790 
985.6687 
981.9902 
980.3194 
979.7505 
981.3013 
980.0142 
975.6736 
972.2765 
970.4967 
971.0044 
973.9986 
980.9531 
988.0680 
992.4602 
991.5577 
987.3850 
980.4515 
973.1638 
968.0106 
967.8734 
971.0776 
972.4639 
976.6086 
978.9046 
977.5753 
972.4464 
966.7871 
962.3385 
960.1257 
961.6573 
964.3499 
966.1699 
968.0567 
964.1158 
956.2626 
947.5643 
936.7404 
929.5133 
928.1120 
934.9858 
944.2241 
952.6082 
957.8579 
955.9455 
948.4217 
939.2112 
932.6944 
929.8654 
932.9661 
940.3571 
947.4171 
949.5021 
946.7051 
940.9971 
933.7473 
927.3400 
924.9273 
933.0230 
944.7965 
954.6601 
957.8669 
956.0052 
947.3487 
935.2104 
925.5552 
921.3094 
923.3897 
930.7957 
939.4606 
946.2549 
948.9585 
946.9402 
941.9789 
938.1411 
938.1507 
941.2460 
945.0459 
949.2495 
952.8302 
949.2764 
944.7873 
940.5024 
934.1221 
930.3462 
931.1031 
936.3797 
944.3880 
951.5359 
955.4053 
955.4288 
948.5169 
939.7432 
932.9366 
931.5486 
934.9207 
941.7764 
950.1555 
953.2079 
952.1578 
948.0783 
943.5949 
938.8366 
936.3756 
936.8209 
941.8431 
947.6617 
951.2488 
950.6961 
948.0672 
943.5051 
938.9222 
936.0639 
938.3852 
945.0589 
953.1547 
962.5939 
967.7868 
966.8175 
959.2854 
951.4195 
945.1977 
940.4925 
943.5687 
951.4188 
960.8109 
966.8610 
967.9900 
965.5546 
962.5237 
959.3685 
959.6007 
964.0031 
972.4399 
980.3434 
984.5195 
982.9653 
973.9851 
961.3824 
949.1862 
942.8893 
948.4680 
960.7644 
976.0357 
992.7082 
1002.1126 
1005.0543 
1004.3879 
1002.2175 
1005.4186 
1016.5274 
1042.9970 
1087.2771 
1146.5028 
1232.9501 
1320.8655 
1406.2767 
1491.2432 
1578.6306 
1647.3522 
1684.6627 
1673.2024 
1651.3891 
1628.3875 
1603.2077 
1576.1753 
1549.6487 
1525.5925 
1505.8621 
1489.7756 
1477.4593 
1465.7911 
1451.4293 
1429.0938 
1400.7726 
1369.0117 
1338.9131 
1312.7896 
1291.5364 
1274.2059 
1261.6670 
1247.1337 
1228.2874 
1205.7927 
1179.6317 
1154.5698 
1134.8041 
1114.5747 
1099.6396 
1086.7884 
1069.0854 
1040.6965 
1016.7433 
984.8963 
953.9128 
927.9587 
909.8443 
902.5032 
899.3198 
898.2218 
896.3592 
886.0644 
873.5597 
859.7983 
846.1383 
838.9336 
835.2710 
833.3295 
830.3504 
824.2372 
815.9039 
807.7475 
796.8652 
786.8375 
780.2237 
778.0403 
779.9102 
785.2393 
792.0669 
794.1749 
793.7748 
791.7639 
789.8643 
790.8317 
799.4420 
815.6744 
830.9571 
843.5636 
851.0246 
852.0192 
849.0974 
846.5449 
847.8096 
857.0017 
867.2362 
878.4949 
888.8375 
892.6246 
891.4433 
886.3378 
880.4019 
878.8343 
882.1129 
890.1627 
896.9749 
905.9131 
914.0975 
920.2426 
922.8969 
923.8565 
925.8881 
929.9173 
936.4231 
946.5901 
960.4203 
972.4145 
978.2429 
978.0645 
978.2672 
977.4150 
981.1853 
993.5388 
1011.2273 
1027.9665 
1040.6516 
1048.4643 
1052.6464 
1051.8984 
1048.2105 
1046.6570 
1048.7555 
1054.3273 
1060.7533 
1067.4522 
1071.2313 
1070.6686 
1066.9797 
1062.7369 
1061.0025 
1064.5493 
1071.8521 
1082.5611 
1093.8093 
1100.7358 
1102.9221 
1100.5286 
1095.4301 
1088.9388 
1087.2379 
1091.8448 
1103.0383 
1115.4412 
1126.6817 
1134.8287 
1132.1963 
1126.6970 
1121.2521 
1119.0550 
1121.7685 
1129.5822 
1140.5613 
1151.2211 
1158.8825 
1162.3481 
1162.3997 
1164.7928 
1168.1346 
1173.9424 
1182.7581 
1193.1279 
1201.9052 
1205.8319 
1202.6470 
1199.9205 
1198.5290 
1196.0733 
1197.8625 
1203.6511 
1211.7607 
1220.4256 
1228.5419 
1232.7590 
1230.0207 
1227.9777 
1227.0676 
1229.3934 
1236.8084 
1249.3563 
1264.5401 
1279.6400 
1285.7315 
1283.9320 
1276.1664 
1266.9063 
1261.8223 
1263.3108 
1272.1872 
1281.7322 
1289.1089 
1292.1229 
1290.7065 
1285.2427 
1279.1959 
1275.9587 
1276.7306 
1277.8168 
1278.2910 
1275.8708 
1268.7739 
1256.6514 
1240.5683 
1228.1655 
1219.3874 
1215.4106 
1215.8559 
1218.2830 
1219.0444 
1215.5148 
1208.4826 
1195.1454 
1179.3266 
1165.3842 
1155.2377 
1148.7259 
1145.1978 
1142.4943 
1137.1389 
1128.7984 
1117.8151 
1102.3635 
1085.6937 
1071.1441 
1061.3992 
1058.1615 
1059.1400 
1061.2905 
1059.4211 
1053.6061 
1044.0738 
1032.4035 
1023.4945 
1018.6952 
1017.3964 
1020.7935 
1023.1474 
1022.8065 
1019.0924 
1010.0551 
999.1047 
989.4989 
984.6419 
985.8962 
992.3746 
1001.8210 
1008.4141 
1009.5852 
1005.0286 
995.7228 
983.7461 
975.8118 
974.3839 
978.7928 
986.6517 
993.4433 
994.9361 
989.4641 
980.9219 
972.3750 
966.8885 
966.1363 
970.2041 
977.4626 
983.3751 
985.9803 
983.9230 
977.0492 
972.3266 
970.0172 
971.1771 
978.8492 
985.8689 
990.2800 
990.3173 
987.2490 
981.0514 
973.8366 
969.6564 
967.0416 
967.2972 
969.4055 
973.0380 
975.7930 
975.8125 
973.4765 
971.1323 
969.5359 
969.9289 
971.9773 
977.7178 
984.4943 
986.9501 
986.2846 
981.6453 
974.2557 
967.7483 
963.5701 
963.7288 
968.6269 
976.4505 
983.5216 
987.1924 
989.8567 
987.4057 
982.7155 
979.1348 
980.0480 
983.6234 
988.2630 
992.4835 
993.5815 
990.6763 
984.6798 
980.7147 
977.4886 
977.0008 
979.1371 
981.9685 
985.5380 
988.0553 
988.7163 
987.2672 
984.0638 
979.2844 
974.9823 
973.9075 
976.0489 
981.9722 
988.1179 
991.1775 
989.2923 
982.8651 
975.9638 
971.8877 
973.8803 
979.0530 
986.2405 
992.9833 
996.6129 
997.0302 
994.2094 
987.5536 
982.4247 
981.3719 
985.1510 
991.2467 
999.8547 
1006.1161 
1003.6218 
997.0287 
989.2498 
983.5298 
982.5194 
984.9843 
990.5131 
997.1438 
1001.3025 
1002.4845 
1000.5803 
997.1832 
992.2388 
988.9916 
989.1059 
990.4782 
993.5091 
996.2467 
999.6638 
1000.8751 
999.6779 
998.1498 
995.1798 
995.4148 
999.0169 
1004.0030 
1006.2749 
1006.5896 
1004.5403 
998.6915 
991.7906 
986.5567 
985.0639 
989.8778 
998.7700 
1008.8373 
1016.4837 
1021.9746 
1022.0362 
1015.4977 
1007.6015 
1002.0477 
999.9218 
999.5960 
1003.8052 
1007.8229 
1008.8229 
1009.7553 
1005.2513 
999.2287 
997.0316 
999.7335 
1007.8260 
1019.3442 
1027.1243 
1030.4730 
1027.7366 
1018.4288 
1008.8698 
1001.7869 
999.4932 
1004.7091 
1012.5293 
1020.8270 
1027.6335 
1026.7018 
1022.0745 
1016.0296 
1010.6940 
1011.2510 
1016.8891 
1025.7187 
1035.1036 
1041.9451 
1044.4299 
1040.2517 
1031.7648 
1026.0478 
1028.2020 
1033.4572 
1044.7554 
1058.6066 
1070.8267 
1077.2939 
1081.2412 
1085.6005 
1100.0988 
1133.0813 
1186.9969 
1266.4287 
1363.3553 
1460.4974 
1554.2256 
1643.5233 
1697.8775 
1720.9976 
1712.0007 
1694.2008 
1679.6955 
1667.3073 
1654.8078 
1635.3001 
1611.4764 
1585.0946 
1559.7326 
1538.4084 
1522.1924 
1510.3985 
1498.0847 
1484.4995 
1467.4926 
1448.9411 
1424.6425 
1397.2963 
1370.3947 
1339.2261 
1311.5299 
1287.3565 
1265.2142 
1243.7480 
1219.9711 
1193.1535 
1164.7241 
1134.6879 
1105.6948 
1078.6710 
1055.7461 
1032.0939 
1016.6627 
998.2344 
975.3786 
949.9221 
926.0126 
906.4595 
892.9764 
885.8829 
883.5204 
885.2372 
885.3935 
880.2395 
870.4553 
854.8877 
836.9003 
821.2440 
813.3128 
811.6325 
813.8805 
813.2846 
808.5794 
799.3285 
786.4229 
775.6189 
768.2401 
765.5414 
773.5501 
784.4930 
795.5226 
804.9349 
809.3159 
810.8414 
812.7064 
820.8990 
836.8667 
857.3092 
877.5268 
890.3926 
897.5345 
898.4889 
895.2149 
892.9252 
893.8609 
900.0604 
909.9040 
921.3181 
931.0793 
934.7163 
933.4602 
930.2195 
928.0373 
929.6167 
937.4874 
950.9250 
966.7124 
980.8735 
992.2819 
999.6690 
1006.6923 
1011.6189 
1015.6153 
1019.6081 
1029.9796 
1044.4179 
1057.2586 
1071.2336 
1088.6428 
1104.4178 
1117.9068 
1127.3048 
1132.5596 
1136.2760 
1139.0143 
1147.0141 
1158.1926 
1170.4176 
1181.0014 
1182.7709 
1179.6922 
1176.1115 
1175.7597 
1180.3796 
1188.8966 
1199.5966 
1208.7052 
1213.7370 
1214.2201 
1212.0006 
1208.6811 
1206.4699 
1205.0064 
1207.0268 
1210.8391 
1214.0763 
1217.5401 
1213.3757 
1204.7487 
1198.5294 
1197.5202 
1201.0942 
1208.1889 
1217.7120 
1225.5601 
1230.6500 
1234.5245 
1233.2549 
1228.9638 
1224.6567 
1224.4894 
1228.0308 
1234.4540 
1241.9168 
1246.9314 
1247.2134 
1243.6295 
1239.8535 
1239.7841 
1244.2144 
1253.0332 
1262.7707 
1272.3716 
1278.8746 
1279.9801 
1277.5713 
1274.6862 
1274.7270 
1280.1961 
1290.0928 
1303.3567 
1317.1869 
1324.1870 
1324.0516 
1316.8918 
1306.2952 
1296.7068 
1289.6591 
1285.4537 
1289.8562 
1299.9420 
1311.8465 
1319.5833 
1317.9988 
1309.3768 
1296.3295 
1281.8986 
1272.7555 
1269.8967 
1274.1628 
1279.8455 
1283.8148 
1284.5519 
1278.7031 
1270.4008 
1262.2743 
1255.7418 
1252.3656 
1252.5950 
1254.1489 
1254.5957 
1249.3200 
1238.5847 
1224.1267 
1209.0088 
1197.8097 
1191.7071 
1189.2215 
1188.4878 
1187.5102 
1184.9104 
1177.2559 
1166.7169 
1156.0666 
1148.1098 
1144.4581 
1143.9089 
1143.9767 
1140.9574 
1133.0681 
1120.3387 
1105.2713 
1092.4287 
1082.4544 
1076.9133 
1075.6496 
1076.4884 
1078.2167 
1079.9835 
1075.3938 
1067.1550 
1057.4205 
1047.7652 
1045.0387 
1047.0128 
1050.8027 
1053.7453 
1054.7450 
1051.7240 
1043.9460 
1034.4223 
1027.3990 
1026.0597 
1028.4350 
1031.7250 
1035.9578 
1038.0986 
1037.0045 
1033.3416 
1028.1991 
1018.2190 
1010.3427 
1008.0681 
1013.3447 
1021.9784 
1029.8463 
1033.6982 
1029.4020 
1022.7025 
1015.1084 
1008.9914 
1010.3840 
1015.3408 
1022.3913 
1029.3305 
1032.8229 
1031.2231 
1024.9137 
1018.2705 
1011.9171 
1008.4806 
1008.9259 
1012.0193 
1015.3384 
1016.5218 
1018.8490 
1019.4593 
1016.9964 
1010.9735 
1007.4046 
1008.1775 
1012.6914 
1018.6273 
1026.2707 
1030.6817 
1029.7825 
1024.4522 
1018.3273 
1014.2759 
1013.8904 
1015.8674 
1021.6464 
1029.5425 
1031.9929 
1028.6399 
1021.4869 
1014.8562 
1010.0616 
1009.5657 
1014.0731 
1024.6698 
1036.2629 
1044.8637 
1047.6292 
1040.5113 
1029.5557 
1019.4942 
1013.9173 
1013.8437 
1019.0234 
1027.7510 
1035.7397 
1038.8384 
1036.8104 
1031.1044 
1023.4217 
1019.6905 
1022.4072 
1026.8161 
1031.8372 
1034.0244 
1029.7576 
1024.1747 
1018.0153 
1013.5932 
1010.2666 
1014.1363 
1022.6149 
1031.3132 
1038.6890 
1041.9803 
1039.8728 
1032.2791 
1025.0863 
1020.6905 
1021.1305 
1023.8328 
1030.9984 
1038.6697 
1040.1469 
1037.8954 
1032.9639 
1027.7736 
1022.8734 
1022.3695 
1025.9425 
1030.2106 
1032.8992 
1033.1361 
1029.9899 
1030.5336 
1027.9771 
1025.0954 
1024.6839 
1026.2982 
1029.1280 
1032.1093 
1030.9652 
1032.5681 
1031.2031 
1025.2533 
1022.9209 
1021.8163 
1023.9085 
1031.0248 
1037.1028 
1043.6792 
1050.0372 
1051.9816 
1049.3356 
1043.4436 
1034.8232 
1028.8286 
1026.3305 
1028.4427 
1034.1031 
1039.6328 
1041.6892 
1039.2691 
1034.3121 
1029.6694 
1027.7172 
1027.6937 
1031.4557 
1038.2615 
1047.8686 
1052.8820 
1051.4935 
1045.2119 
1036.1129 
1026.4362 
1023.8830 
1028.1143 
1036.1974 
1042.6173 
1045.1541 
1043.2689 
1036.8885 
1030.6312 
1027.8177 
1029.8103 
1036.0168 
1044.6442 
1052.8270 
1057.8964 
1057.4433 
1051.9294 
1043.1137 
1035.8250 
1033.0954 
1036.1545 
1041.5536 
1048.0858 
1052.3192 
1050.5448 
1046.3905 
1040.8355 
1036.4960 
1036.2055 
1040.3426 
1048.0312 
1056.8217 
1061.3258 
1060.1099 
1053.2769 
1047.0000 
1041.2155 
1040.1386 
1047.4525 
1060.0313 
1073.0925 
1082.7391 
1082.5565 
1079.0104 
1074.5145 
1072.9864 
1079.8204 
1097.1837 
1125.6564 
1166.6401 
1237.5934 
1320.9525 
1411.0572 
1497.3624 
1582.1406 
1657.3630 
1701.2272 
1701.8020 
1694.7058 
1685.6425 
1678.1698 
1666.9746 
1651.2346 
1631.7370 
1612.9049 
1594.3721 
1577.9253 
1568.2401 
1559.2335 
1549.0563 
1536.3771 
1515.8918 
1495.2688 
1475.9149 
1455.7189 
1437.5457 
1421.6218 
1405.9277 
1389.9492 
1371.3878 
1347.9128 
1317.7264 
1284.8243 
1252.9689 
1224.4395 
1200.8573 
1180.8595 
1160.6788 
1136.5273 
1108.6540 
1077.3650 
1043.6270 
1014.3539 
990.0270 
969.5554 
954.6265 
947.1491 
938.0577 
925.2280 
908.8107 
892.3441 
878.4819 
869.9733 
866.5890 
864.1894 
860.9741 
854.4755 
842.9030 
824.7628 
801.4243 
779.2050 
763.9903 
755.3412 
751.2583 
759.5922 
766.7051 
769.5313 
771.7147 
774.1144 
778.3511 
787.3531 
800.3642 
818.4971 
839.6900 
859.5884 
873.7785 
881.9933 
884.9791 
884.0955 
883.9731 
886.6918 
892.1768 
902.1454 
912.6757 
920.8217 
928.1885 
929.3904 
926.2041 
920.9012 
917.4163 
918.1892 
923.4032 
935.0987 
949.4866 
961.8626 
970.3227 
973.0006 
970.3273 
966.4148 
966.7492 
975.7192 
991.2041 
1010.6545 
1024.6242 
1033.9427 
1039.4892 
1041.4980 
1044.1293 
1048.5342 
1055.1898 
1068.6663 
1084.0890 
1096.4250 
1101.3503 
1102.9617 
1098.4139 
1091.0707 
1089.8134 
1094.0362 
1102.4808 
1112.6483 
1119.9952 
1123.6156 
1123.3028 
1120.4766 
1114.5886 
1111.3813 
1113.4422 
1120.7309 
1130.4381 
1139.4374 
1145.2500 
1145.4489 
1139.0503 
1128.4905 
1123.7240 
1127.5400 
1137.8121 
1150.8301 
1163.1826 
1173.3630 
1179.8448 
1180.1706 
1179.2870 
1178.9122 
1180.0721 
1189.0090 
1200.1781 
1210.7036 
1217.9404 
1219.7426 
1217.7947 
1214.8086 
1217.1079 
1222.8911 
1232.7756 
1244.9632 
1257.4313 
1267.4231 
1273.0529 
1275.7565 
1274.8873 
1272.5441 
1270.0573 
1272.5864 
1279.7750 
1288.8864 
1293.5020 
1295.4853 
1293.6908 
1289.1810 
1286.8509 
1288.6074 
1295.9307 
1308.0283 
1318.5077 
1326.4866 
1329.9368 
1323.2418 
1313.7534 
1304.1554 
1298.4148 
1293.5135 
1291.1077 
1290.0658 
1289.2466 
1287.7553 
1283.7463 
1277.7498 
1269.7170 
1261.1175 
1254.3380 
1250.7147 
1252.6663 
1256.8857 
1260.1229 
1257.3032 
1248.4562 
1235.1559 
1219.5773 
1208.5529 
1203.4828 
1204.0886 
1211.4518 
1214.0677 
1209.7096 
1197.0251 
1178.0623 
1159.7771 
1146.4467 
1142.6796 
1140.7169 
1139.5812 
1136.9647 
1130.5931 
1120.8260 
1108.5560 
1096.1405 
1086.2952 
1080.8877 
1080.3471 
1080.1137 
1079.2573 
1075.7357 
1070.3616 
1063.6950 
1056.2498 
1050.4598 
1049.4493 
1049.3379 
1050.8690 
1054.6198 
1055.9337 
1053.8100 
1048.3178 
1042.7608 
1037.6846 
1035.0266 
1035.1409 
1037.2938 
1042.8475 
1048.6131 
1046.9906 
1042.5017 
1034.7887 
1025.3412 
1016.6675 
1013.2141 
1015.5677 
1023.4335 
1027.6051 
1027.5044 
1022.5753 
1022.4861 
1019.1103 
1015.8764 
1015.8235 
1017.7740 
1021.3978 
1024.5036 
1029.2702 
1029.8229 
1027.0339 
1024.0952 
1019.9037 
1019.4573 
1023.5986 
1026.8726 
1030.8367 
1033.1053 
1031.9454 
1027.7914 
1022.0494 
1016.8017 
1012.4447 
1013.5107 
1019.1866 
1027.2404 
1034.3005 
1035.6830 
1031.2291 
1023.3612 
1013.4112 
1007.4847 
1008.5387 
1015.9144 
1027.3297 
1038.2552 
1043.6218 
1040.1487 
1032.6066 
1023.6387 
1014.7034 
1011.5206 
1014.0349 
1020.7047 
1030.6415 
1036.8278 
1038.0192 
1037.4408 
1032.3044 
1027.3523 
1026.0340 
1026.9764 
1030.8732 
1036.8388 
1042.5793 
1045.6592 
1042.0732 
1033.3531 
1024.0930 
1019.3462 
1019.6504 
1023.4870 
1031.9084 
1039.0622 
1042.0762 
1040.6599 
1035.2427 
1028.1551 
1022.0381 
1020.6069 
1022.3338 
1026.7180 
1035.8171 
1041.4927 
1042.2377 
1038.9032 
1032.9869 
1028.7094 
1028.0197 
1030.6249 
1034.1127 
1037.4551 
1038.3433 
1038.5106 
1034.4639 
1027.8004 
1021.0575 
1014.8842 
1012.7773 
1014.5630 
1019.0590 
1025.6383 
1031.0260 
1034.4464 
1033.4826 
1032.3051 
1031.2993 
1030.9138 
1029.6282 
1033.4749 
1038.5472 
1043.8540 
1045.3214 
1041.3317 
1033.9811 
1031.4420 
1033.8026 
1041.0731 
1054.5496 
1066.6013 
1075.5265 
1081.1718 
1079.6828 
1075.2226 
1070.8350 
1067.4178 
1067.9137 
1072.0152 
1077.8630 
1084.9486 
1086.5852 
1082.7870 
1077.0810 
1072.2630 
1070.9180 
1074.4072 
1079.5536 
1087.9457 
1095.2893 
1096.0621 
1092.4326 
1085.3758 
1077.5699 
1074.2432 
1077.4992 
1085.9323 
1096.0705 
1103.6423 
1106.6267 
1103.5018 
1091.5883 
1080.0057 
1070.5435 
1064.5038 
1065.5096 
1069.9622 
1074.7397 
1076.2169 
1075.6014 
1072.7364 
1069.7223 
1065.5630 
1063.1350 
1063.0720 
1063.0204 
1060.2971 
1056.0252 
1049.6211 
1045.1252 
1038.9701 
1034.6876 
1036.5205 
1038.9306 
1046.0807 
1055.8981 
1060.5137 
1064.0103 
1063.6675 
1059.1576 
1062.1578 
1074.7241 
1100.7393 
1150.9945 
1233.9324 
1327.7317 
1421.9240 
1511.7027 
1597.8012 
1666.0492 
1673.9878 
1663.3012 
1652.1088 
1644.1195 
1641.8603 
1636.0540 
1625.0906 
1609.0147 
1588.3775 
1565.1093 
1542.0078 
1523.9854 
1510.9802 
1500.2883 
1489.1265 
1475.2974 
1454.1341 
1426.8689 
1395.4513 
1365.7991 
1339.6193 
1316.4503 
1298.5685 
1280.3851 
1259.3140 
1234.3903 
1203.2467 
1169.2380 
1135.3522 
1104.2269 
1079.1965 
1058.1565 
1039.6438 
1017.6222 
990.5413 
960.5490 
926.5349 
897.6173 
875.8083 
862.3086 
854.5209 
850.7754 
847.4884 
839.9544 
828.8712 
817.4411 
809.4890 
804.1693 
799.4021 
794.8247 
788.4961 
779.7424 
767.5160 
752.0435 
740.0070 
727.5014 
717.9041 
713.6987 
716.5984 
723.1847 
730.7730 
740.6697 
751.7350 
762.0104 
772.0016 
785.4645 
801.5746 
820.2806 
839.6658 
857.6203 
870.8568 
877.4469 
880.2376 
880.2165 
880.5941 
884.1409 
892.6783 
904.4608 
916.7720 
928.7381 
935.5545 
936.5998 
932.2212 
923.4860 
919.3675 
922.1073 
930.4210 
947.0503 
965.3737 
980.7727 
985.1450 
985.3505 
984.7795 
986.9021 
994.4243 
1008.1714 
1027.0245 
1042.9551 
1057.2699 
1061.5873 
1060.1990 
1056.7519 
1056.9164 
1063.8293 
1080.5644 
1100.8373 
1119.7138 
1130.8400 
1133.8349 
1131.0278 
1125.0961 
1120.4805 
1123.0900 
1130.9288 
1140.4783 
1153.9145 
1164.1335 
1168.7485 
1166.7302 
1161.2928 
1157.3932 
1158.9546 
1166.3416 
1177.0109 
1188.4105 
1197.0309 
1202.9672 
1203.8830 
1200.7078 
1200.0871 
1202.5364 
1208.7752 
1216.9316 
1226.4989 
1235.4321 
1241.2606 
1242.0041 
1240.7795 
1239.6557 
1241.4581 
1247.9348 
1258.7713 
1272.1965 
1284.8953 
1292.5475 
1295.4122 
1294.8227 
1295.3183 
1297.0840 
1302.1773 
1310.5420 
1320.4207 
1330.2544 
1337.5148 
1342.7218 
1343.7148 
1341.9182 
1339.4951 
1338.9367 
1343.2778 
1352.0473 
1361.5830 
1369.5916 
1373.3527 
1371.7335 
1365.7533 
1358.1756 
1352.1032 
1350.2778 
1353.0949 
1358.7502 
1364.5425 
1366.9929 
1363.7450 
1354.9081 
1340.3580 
1330.5610 
1325.7104 
1325.6531 
1329.7701 
1333.8872 
1334.6735 
1329.5195 
1321.0282 
1309.7686 
1298.3542 
1289.1775 
1286.4400 
1287.6897 
1289.2178 
1286.6230 
1280.9061 
1272.0566 
1261.3109 
1249.8138 
1239.6823 
1231.6523 
1224.6119 
1219.4510 
1212.5961 
1199.6899 
1187.0393 
1173.8881 
1162.4252 
1154.7788 
1149.4980 
1147.1435 
1146.4824 
1144.5338 
1139.2195 
1129.7305 
1119.2569 
1108.0758 
1099.7337 
1097.2938 
1097.8830 
1101.2224 
1104.6732 
1105.4304 
1101.8826 
1095.6325 
1089.7386 
1082.0333 
1078.5796 
1079.1653 
1079.1138 
1081.6903 
1083.5503 
1082.6538 
1078.8779 
1070.1930 
1061.8825 
1060.8356 
1062.2982 
1068.3409 
1076.9097 
1081.5253 
1081.9602 
1077.7620 
1070.3724 
1063.0878 
1057.0485 
1054.7708 
1060.3889 
1066.1728 
1071.2031 
1073.9613 
1073.7062 
1069.8106 
1065.0189 
1063.5980 
1064.2930 
1067.7401 
1072.4380 
1076.6585 
1080.1136 
1080.8712 
1079.1944 
1074.8617 
1070.9740 
1069.9413 
1071.3577 
1078.2555 
1087.0293 
1093.8662 
1097.3534 
1096.5962 
1093.0462 
1088.9868 
1087.7944 
1091.9904 
1101.9392 
1112.2243 
1121.2579 
1126.6745 
1127.6692 
1126.5536 
1125.9509 
1128.7501 
1132.1826 
1140.2875 
1148.9324 
1150.6356 
1146.1333 
1138.4129 
1129.1511 
1121.7753 
1118.9160 
1120.7500 
1125.9690 
1134.2211 
1140.9166 
1143.2912 
1140.7969 
1134.2038 
1127.5392 
1125.3466 
1123.7049 
1127.2375 
1133.9623 
1137.7132 
1136.1625 
1130.9874 
1123.2069 
1114.0502 
1107.6379 
1104.3405 
1101.5750 
1101.5354 
1103.4636 
1104.7870 
1103.8844 
1100.5425 
1095.8354 
1092.8674 
1086.7784 
1081.6458 
1078.6494 
1080.0356 
1080.5514 
1078.8778 
1074.6686 
1068.7498 
1062.2071 
1057.6932 
1056.9204 
1062.2792 
1069.1072 
1073.3659 
1073.0928 
1070.8870 
1065.8600 
1058.6016 
1053.2410 
1050.3476 
1050.5566 
1052.3907 
1060.8892 
1069.4705 
1072.6303 
1072.0937 
1067.2513 
1061.0164 
1058.0993 
1056.2738 
1058.8844 
1066.2182 
1071.1674 
1074.6608 
1075.2466 
1072.4183 
1065.8289 
1060.8476 
1060.3158 
1062.6519 
1069.4126 
1076.6601 
1079.8669 
1078.7018 
1072.3417 
1062.9747 
1056.9192 
1055.0387 
1058.8704 
1068.4199 
1075.2517 
1079.4299 
1079.4299 
1075.2517 
1068.2122 
1062.3057 
1060.9873 
1064.0826 
1070.0296 
1076.2787 
1079.1394 
1079.8669 
1076.0720 
1068.5445 
1064.3240 
1062.7079 
1064.8476 
1069.4042 
1077.8384 
1084.7051 
1087.1066 
1086.4101 
1083.2170 
1079.2694 
1076.7522 
1076.9371 
1080.5473 
1086.2513 
1092.4706 
1092.6233 
1089.0761 
1084.8869 
1078.9636 
1075.4889 
1076.8179 
1083.7427 
1092.2165 
1100.0362 
1104.3690 
1105.9761 
1105.6331 
1105.0687 
1107.6853 
1117.0907 
1137.1962 
1169.0986 
1221.1115 
1296.7106 
1382.8754 
1471.2504 
1556.5922 
1617.4055 
1652.9679 
1657.6220 
1657.3295 
1655.7257 
1652.8786 
1648.0734 
1637.2490 
1620.5861 
1598.1165 
1576.9111 
1560.1013 
1548.5247 
1542.5624 
1534.7938 
1522.9991 
1506.3258 
1484.4693 
1459.8970 
1435.6494 
1414.9534 
1399.6675 
1387.9697 
1376.5387 
1359.0664 
1335.2270 
1304.3950 
1264.1312 
1223.1394 
1186.3078 
1156.6791 
1134.9946 
1116.6552 
1097.8692 
1074.1637 
1037.8351 
1009.5439 
977.2000 
950.1149 
930.3965 
918.4083 
914.1475 
909.2211 
903.3385 
895.7118 
883.7984 
872.1458 
861.6567 
852.0173 
843.4804 
835.6110 
826.9113 
821.1889 
810.6317 
796.8741 
783.0607 
769.5514 
760.3147 
757.2949 
763.0029 
779.8455 
796.7825 
808.9152 
825.2979 
838.1778 
851.4157 
869.8076 
895.6167 
922.8742 
947.9016 
966.9162 
976.8727 
980.0829 
980.6127 
981.2360 
982.7825 
987.1909 
996.4087 
1007.9534 
1019.9370 
1030.6148 
1033.4366 
1030.3788 
1024.4471 
1020.1465 
1022.2586 
1031.7985 
1046.6201 
1063.7997 
1075.6865 
1080.8245 
1079.1477 
1072.3950 
1068.9180 
1072.4792 
1081.8151 
1096.5858 
1114.3175 
1132.6737 
1143.7828 
1148.7549 
1149.6238 
1150.6041 
1153.9239 
1163.1351 
1179.5635 
1196.3515 
1212.6791 
1225.2521 
1229.8465 
1227.2035 
1223.1120 
1221.6567 
1221.4894 
1226.8768 
1236.0048 
1246.3474 
1250.5429 
1249.7700 
1245.3028 
1240.0868 
1238.3442 
1241.5411 
1249.6399 
1258.1861 
1267.5047 
1274.8443 
1276.6697 
1274.3963 
1271.2194 
1271.1868 
1275.1821 
1280.3904 
1286.6391 
1293.9897 
1300.0703 
1303.4880 
1304.3294 
1304.5321 
1302.0603 
1301.2215 
1306.3755 
1314.8842 
1325.7658 
1336.1977 
1341.0547 
1342.9404 
1341.3663 
1336.9584 
1337.2661 
1339.4148 
1343.5829 
1352.1687 
1360.9458 
1367.1298 
1369.4002 
1365.8163 
1359.7906 
1355.0561 
1356.4431 
1360.5383 
1367.2811 
1374.4733 
1379.9598 
1380.7879 
1376.8717 
1369.6133 
1363.6249 
1361.3441 
1363.7479 
1367.7419 
1373.9137 
1379.4355 
1382.5953 
1377.5382 
1368.0669 
1357.6687 
1351.8718 
1351.9517 
1356.8727 
1364.2065 
1367.8115 
1366.5768 
1360.3341 
1352.4662 
1344.2770 
1337.1463 
1332.3357 
1333.9518 
1337.7288 
1341.3334 
1343.1002 
1339.2888 
1330.7419 
1319.6842 
1308.5890 
1303.1063 
1303.1878 
1306.9777 
1312.6088 
1315.7041 
1313.6014 
1302.2237 
1287.4736 
1273.3698 
1263.4121 
1261.2810 
1261.8090 
1262.9461 
1263.6470 
1258.2426 
1248.6835 
1237.4884 
1226.7884 
1219.1350 
1215.8744 
1216.1113 
1214.7719 
1211.1964 
1203.3271 
1189.6715 
1174.4597 
1160.4176 
1151.4208 
1147.7166 
1148.8355 
1152.5979 
1153.0575 
1148.5638 
1139.6490 
1128.2603 
1116.5004 
1106.4282 
1100.5343 
1100.2596 
1104.3752 
1110.0362 
1114.3433 
1114.5106 
1109.5818 
1100.8692 
1089.8066 
1085.4630 
1085.5941 
1088.7089 
1093.9248 
1100.0175 
1102.5032 
1098.0042 
1085.3472 
1073.8851 
1067.4953 
1068.5497 
1073.7029 
1080.9906 
1087.5028 
1087.9521 
1084.6154 
1078.8475 
1074.3767 
1071.7419 
1071.9473 
1074.7231 
