450.0000 
527.3791 
597.9634 
655.7827 
696.4079 
717.4656 
718.8851 
702.8489 
673.4544 
636.1390 
596.9463 
561.7357 
535.4414 
521.4801 
521.3831 
534.6972 
559.1617 
591.1273 
626.1534 
659.6928 
687.7641 
707.5157 
717.5998 
718.3080 
711.4501 
700.0000 
687.5632 
677.7493 
673.5438 
676.7759 
687.7641 
705.1955 
726.2601 
747.0261 
763.0023 
769.8113 
763.8736 
743.0042 
706.8322 
656.9763 
596.9463 
531.7744 
467.4224 
410.0407 
365.1771 
337.0429 
327.9370 
337.9079 
364.7032 
404.0162 
450.0000 
495.9838 
535.2968 
562.0921 
572.0630 
562.9571 
534.8229 
489.9593 
432.5776 
368.2256 
303.0537 
243.0237 
193.1678 
156.9958 
136.1264 
130.1887 
136.9977 
152.9739 
173.7399 
194.8045 
212.2359 
223.2241 
226.4562 
222.2507 
212.4368 
200.0000 
188.5499 
181.6920 
182.4002 
192.4843 
212.2359 
240.3072 
273.8466 
308.8727 
340.8383 
365.3028 
378.6169 
378.5199 
364.5586 
338.2643 
303.0537 
263.8610 
226.5456 
197.1511 
181.1149 
182.5344 
203.5921 
244.2173 
302.0366 
372.6209 
450.0000 
527.3791 
597.9634 
655.7827 
696.4079 
717.4656 
718.8851 
702.8489 
673.4544 
636.1390 
596.9463 
561.7357 
535.4414 
521.4801 
521.3831 
534.6972 
559.1617 
591.1273 
626.1534 
659.6928 
687.7641 
707.5157 
717.5998 
718.3080 
711.4501 
700.0000 
687.5632 
677.7493 
673.5438 
676.7759 
687.7641 
705.1955 
726.2601 
747.0261 
763.0023 
769.8113 
763.8736 
743.0042 
706.8322 
656.9763 
596.9463 
531.7744 
467.4224 
410.0407 
365.1771 
337.0429 
327.9370 
337.9079 
364.7032 
404.0162 
450.0000 
495.9838 
535.2968 
562.0921 
572.0630 
562.9571 
534.8229 
489.9593 
432.5776 
368.2256 
303.0537 
243.0237 
193.1678 
156.9958 
136.1264 
130.1887 
136.9977 
152.9739 
173.7399 
194.8045 
212.2359 
223.2241 
226.4562 
222.2507 
212.4368 
200.0000 
188.5499 
181.6920 
182.4002 
192.4843 
212.2359 
240.3072 
273.8466 
308.8727 
340.8383 
365.3028 
378.6169 
378.5199 
364.5586 
338.2643 
303.0537 
263.8610 
226.5456 
197.1511 
181.1149 
182.5344 
203.5921 
244.2173 
302.0366 
372.6209 
450.0000 
527.3791 
597.9634 
655.7827 
696.4079 
717.4656 
718.8851 
702.8489 
673.4544 
636.1390 
596.9463 
561.7357 
535.4414 
521.4801 
521.3831 
534.6972 
559.1617 
591.1273 
626.1534 
659.6928 
687.7641 
707.5157 
717.5998 
718.3080 
711.4501 
700.0000 
687.5632 
677.7493 
673.5438 
676.7759 
687.7641 
705.1955 
726.2601 
747.0261 
763.0023 
769.8113 
763.8736 
743.0042 
706.8322 
656.9763 
596.9463 
531.7744 
467.4224 
410.0407 
365.1771 
337.0429 
327.9370 
337.9079 
364.7032 
404.0162 
450.0000 
495.9838 
535.2968 
562.0921 
572.0630 
562.9571 
534.8229 
489.9593 
432.5776 
368.2256 
303.0537 
243.0237 
193.1678 
156.9958 
136.1264 
130.1887 
136.9977 
152.9739 
173.7399 
194.8045 
212.2359 
223.2241 
226.4562 
222.2507 
212.4368 
200.0000 
188.5499 
181.6920 
182.4002 
192.4843 
212.2359 
240.3072 
273.8466 
308.8727 
340.8383 
365.3028 
378.6169 
378.5199 
364.5586 
338.2643 
303.0537 
263.8610 
226.5456 
197.1511 
181.1149 
182.5344 
203.5921 
244.2173 
302.0366 
372.6209 
450.0000 
527.3791 
597.9634 
655.7827 
696.4079 
717.4656 
718.8851 
702.8489 
673.4544 
636.1390 
596.9463 
561.7357 
535.4414 
521.4801 
521.3831 
534.6972 
559.1617 
591.1273 
626.1534 
659.6928 
687.7641 
707.5157 
717.5998 
718.3080 
711.4501 
700.0000 
687.5632 
677.7493 
673.5438 
676.7759 
687.7641 
705.1955 
726.2601 
747.0261 
763.0023 
769.8113 
763.8736 
743.0042 
706.8322 
656.9763 
596.9463 
531.7744 
467.4224 
410.0407 
365.1771 
337.0429 
327.9370 
337.9079 
364.7032 
404.0162 
450.0000 
495.9838 
535.2968 
562.0921 
572.0630 
562.9571 
534.8229 
489.9593 
432.5776 
368.2256 
303.0537 
243.0237 
193.1678 
156.9958 
136.1264 
130.1887 
136.9977 
152.9739 
173.7399 
194.8045 
212.2359 
223.2241 
226.4562 
222.2507 
212.4368 
200.0000 
188.5499 
181.6920 
182.4002 
192.4843 
212.2359 
240.3072 
273.8466 
308.8727 
340.8383 
365.3028 
378.6169 
378.5199 
364.5586 
338.2643 
303.0537 
263.8610 
226.5456 
197.1511 
181.1149 
182.5344 
203.5921 
244.2173 
302.0366 
372.6209 
450.0000 
527.3791 
597.9634 
655.7827 
696.4079 
717.4656 
718.8851 
702.8489 
673.4544 
636.1390 
596.9463 
561.7357 
535.4414 
521.4801 
521.3831 
534.6972 
559.1617 
591.1273 
626.1534 
659.6928 
687.7641 
707.5157 
717.5998 
718.3080 
711.4501 
700.0000 
687.5632 
677.7493 
673.5438 
676.7759 
687.7641 
705.1955 
726.2601 
747.0261 
763.0023 
769.8113 
763.8736 
743.0042 
706.8322 
656.9763 
596.9463 
531.7744 
467.4224 
410.0407 
365.1771 
337.0429 
327.9370 
337.9079 
364.7032 
404.0162 
450.0000 
495.9838 
535.2968 
562.0921 
572.0630 
562.9571 
534.8229 
489.9593 
432.5776 
368.2256 
303.0537 
243.0237 
193.1678 
156.9958 
136.1264 
130.1887 
136.9977 
152.9739 
173.7399 
194.8045 
212.2359 
223.2241 
226.4562 
222.2507 
212.4368 
200.0000 
188.5499 
181.6920 
182.4002 
192.4843 
212.2359 
240.3072 
273.8466 
308.8727 
340.8383 
365.3028 
378.6169 
378.5199 
364.5586 
338.2643 
303.0537 
263.8610 
226.5456 
197.1511 
181.1149 
182.5344 
203.5921 
244.2173 
302.0366 
372.6209 
450.0000 
527.3791 
597.9634 
655.7827 
696.4079 
717.4656 
718.8851 
702.8489 
673.4544 
636.1390 
596.9463 
561.7357 
535.4414 
521.4801 
521.3831 
534.6972 
559.1617 
591.1273 
626.1534 
659.6928 
687.7641 
707.5157 
717.5998 
718.3080 
711.4501 
700.0000 
687.5632 
677.7493 
673.5438 
676.7759 
687.7641 
705.1955 
726.2601 
747.0261 
763.0023 
769.8113 
763.8736 
743.0042 
706.8322 
656.9763 
596.9463 
531.7744 
467.4224 
410.0407 
365.1771 
337.0429 
327.9370 
337.9079 
364.7032 
404.0162 
450.0000 
495.9838 
535.2968 
562.0921 
572.0630 
562.9571 
534.8229 
489.9593 
432.5776 
368.2256 
303.0537 
243.0237 
193.1678 
156.9958 
136.1264 
130.1887 
136.9977 
152.9739 
173.7399 
194.8045 
212.2359 
223.2241 
226.4562 
222.2507 
212.4368 
200.0000 
188.5499 
181.6920 
182.4002 
192.4843 
212.2359 
240.3072 
273.8466 
308.8727 
340.8383 
365.3028 
378.6169 
378.5199 
364.5586 
338.2643 
303.0537 
263.8610 
226.5456 
197.1511 
181.1149 
182.5344 
203.5921 
244.2173 
302.0366 
372.6209 
450.0000 
527.3791 
597.9634 
655.7827 
696.4079 
717.4656 
718.8851 
702.8489 
673.4544 
636.1390 
596.9463 
561.7357 
535.4414 
521.4801 
521.3831 
534.6972 
559.1617 
591.1273 
626.1534 
659.6928 
687.7641 
707.5157 
717.5998 
718.3080 
711.4501 
700.0000 
687.5632 
677.7493 
673.5438 
676.7759 
687.7641 
705.1955 
726.2601 
747.0261 
763.0023 
769.8113 
763.8736 
743.0042 
706.8322 
656.9763 
596.9463 
531.7744 
467.4224 
410.0407 
365.1771 
337.0429 
327.9370 
337.9079 
364.7032 
404.0162 
450.0000 
495.9838 
535.2968 
562.0921 
572.0630 
562.9571 
534.8229 
489.9593 
432.5776 
368.2256 
303.0537 
243.0237 
193.1678 
156.9958 
136.1264 
130.1887 
136.9977 
152.9739 
173.7399 
194.8045 
212.2359 
223.2241 
226.4562 
222.2507 
212.4368 
200.0000 
188.5499 
181.6920 
182.4002 
192.4843 
212.2359 
240.3072 
273.8466 
308.8727 
340.8383 
365.3028 
378.6169 
378.5199 
364.5586 
338.2643 
303.0537 
263.8610 
226.5456 
197.1511 
181.1149 
182.5344 
203.5921 
244.2173 
302.0366 
372.6209 
450.0000 
527.3791 
597.9634 
655.7827 
696.4079 
717.4656 
718.8851 
702.8489 
673.4544 
636.1390 
596.9463 
561.7357 
535.4414 
521.4801 
521.3831 
534.6972 
559.1617 
591.1273 
626.1534 
659.6928 
687.7641 
707.5157 
717.5998 
718.3080 
711.4501 
700.0000 
687.5632 
677.7493 
673.5438 
676.7759 
687.7641 
705.1955 
726.2601 
747.0261 
763.0023 
769.8113 
763.8736 
743.0042 
706.8322 
656.9763 
596.9463 
531.7744 
467.4224 
410.0407 
365.1771 
337.0429 
327.9370 
337.9079 
364.7032 
404.0162 
450.0000 
495.9838 
535.2968 
562.0921 
572.0630 
562.9571 
534.8229 
489.9593 
432.5776 
368.2256 
303.0537 
243.0237 
193.1678 
156.9958 
136.1264 
130.1887 
136.9977 
152.9739 
173.7399 
194.8045 
212.2359 
223.2241 
226.4562 
222.2507 
212.4368 
200.0000 
188.5499 
181.6920 
182.4002 
192.4843 
212.2359 
240.3072 
273.8466 
308.8727 
340.8383 
365.3028 
378.6169 
378.5199 
364.5586 
338.2643 
303.0537 
263.8610 
226.5456 
197.1511 
181.1149 
182.5344 
203.5921 
244.2173 
302.0366 
372.6209 
450.0000 
527.3791 
597.9634 
655.7827 
696.4079 
717.4656 
718.8851 
702.8489 
673.4544 
636.1390 
596.9463 
561.7357 
535.4414 
521.4801 
521.3831 
534.6972 
559.1617 
591.1273 
626.1534 
659.6928 
687.7641 
707.5157 
717.5998 
718.3080 
711.4501 
700.0000 
687.5632 
677.7493 
673.5438 
676.7759 
687.7641 
705.1955 
726.2601 
747.0261 
763.0023 
769.8113 
763.8736 
743.0042 
706.8322 
656.9763 
596.9463 
531.7744 
467.4224 
410.0407 
365.1771 
337.0429 
327.9370 
337.9079 
364.7032 
404.0162 
450.0000 
495.9838 
535.2968 
562.0921 
572.0630 
562.9571 
534.8229 
489.9593 
432.5776 
368.2256 
303.0537 
243.0237 
193.1678 
156.9958 
136.1264 
130.1887 
136.9977 
152.9739 
173.7399 
194.8045 
212.2359 
223.2241 
226.4562 
222.2507 
212.4368 
200.0000 
188.5499 
181.6920 
182.4002 
192.4843 
212.2359 
240.3072 
273.8466 
308.8727 
340.8383 
365.3028 
378.6169 
378.5199 
364.5586 
338.2643 
303.0537 
263.8610 
226.5456 
197.1511 
181.1149 
182.5344 
203.5921 
244.2173 
302.0366 
372.6209 
450.0000 
527.3791 
597.9634 
655.7827 
696.4079 
717.4656 
718.8851 
702.8489 
673.4544 
636.1390 
596.9463 
561.7357 
535.4414 
521.4801 
521.3831 
534.6972 
559.1617 
591.1273 
626.1534 
659.6928 
687.7641 
707.5157 
717.5998 
718.3080 
711.4501 
700.0000 
687.5632 
677.7493 
673.5438 
676.7759 
687.7641 
705.1955 
726.2601 
747.0261 
763.0023 
769.8113 
763.8736 
743.0042 
706.8322 
656.9763 
596.9463 
531.7744 
467.4224 
410.0407 
365.1771 
337.0429 
327.9370 
337.9079 
364.7032 
404.0162 
450.0000 
495.9838 
535.2968 
562.0921 
572.0630 
562.9571 
534.8229 
489.9593 
432.5776 
368.2256 
303.0537 
243.0237 
193.1678 
156.9958 
136.1264 
130.1887 
136.9977 
152.9739 
173.7399 
194.8045 
212.2359 
223.2241 
226.4562 
222.2507 
212.4368 
200.0000 
188.5499 
181.6920 
182.4002 
192.4843 
212.2359 
240.3072 
273.8466 
308.8727 
340.8383 
365.3028 
378.6169 
378.5199 
364.5586 
338.2643 
303.0537 
263.8610 
226.5456 
197.1511 
181.1149 
182.5344 
203.5921 
244.2173 
302.0366 
372.6209 
450.0000 
